# dimensionless total lensed [l(l+1)/2pi] C_l's
# for l=2 to 2500, i.e. number of multipoles equal to 2499
#
# -> if you prefer output in CAMB/HealPix/LensPix units/order, set 'format' to 'camb' in input file
# -> if you don't want to see such a header, set 'headers' to 'no' in input file
# -> for CMB lensing (phi), these are C_l^phi-phi for the lensing potential.
#    Remember the conversion factors:
#    C_l^dd (deflection) = l(l+1) C_l^phi-phi
#    C_l^gg (shear/convergence) = 1/4 (l(l+1))^2 C_l^phi-phi
#
# 1:l     2:TT                     3:EE                     4:TE                     5:BB                     6:phiphi                 7:TPhi                   8:Ephi               
    2       1.294798541884e-10       6.808091717742e-15       5.092167390239e-13       2.484087483035e-19       9.596615506621e-09       3.346388800152e-10      -2.462751208802e-12 
    3       1.253995918997e-10       1.184259947032e-14       6.250688491937e-13       4.970508634926e-19       5.895974686215e-09       2.466637358303e-10      -2.181708630014e-12 
    4       1.202757041346e-10       1.432621003591e-14       6.430746748539e-13       8.289288612283e-19       4.089555706595e-09       1.913956473415e-10      -1.770402760342e-12 
    5       1.159656865921e-10       1.380569911101e-14       6.035958013809e-13       1.244332374424e-18       3.045834693014e-09       1.538199697943e-10      -1.348247911525e-12 
    6       1.127310636946e-10       1.116169732351e-14       5.343912207475e-13       1.743605608734e-18       2.375584253721e-09       1.267990558821e-10      -9.566706916750e-13 
    7       1.105021682303e-10       7.776664643057e-15       4.546338849786e-13       2.327136465686e-18       1.914335926333e-09       1.065334891572e-10      -6.181034782308e-13 
    8       1.090842558566e-10       4.794265482750e-15       3.759229728489e-13       2.995344451508e-18       1.580886118071e-09       9.084883845534e-11      -3.434988854081e-13 
    9       1.083614481091e-10       2.780979262955e-15       3.051823378369e-13       3.748667831733e-18       1.330746773215e-09       7.842045944190e-11      -1.361925828316e-13 
   10       1.081695687397e-10       1.748217133187e-15       2.464184283135e-13       4.587550518595e-18       1.137290586844e-09       6.841281534106e-11       6.395185681378e-15 
   11       1.083892150153e-10       1.382567556883e-15       2.015662986655e-13       5.512429185916e-18       9.514168386112e-10       6.061445240712e-11       9.070626692608e-14 
   12       1.089957640962e-10       1.308909034806e-15       1.707938329897e-13       6.523721094454e-18       8.306762005656e-10       5.361801964621e-11       1.280004635610e-13 
   13       1.098190155226e-10       1.266036370628e-15       1.529519877410e-13       7.621813079917e-18       7.316595460417e-10       4.798290222849e-11       1.301413056074e-13 
   14       1.108509753212e-10       1.157614499996e-15       1.459951971903e-13       8.807052107318e-18       6.493572101824e-10       4.301688699088e-11       1.077207109917e-13 
   15       1.120662244572e-10       1.008582997041e-15       1.472965066961e-13       1.007973773106e-17       5.801404183435e-10       3.891891248879e-11       7.214533759976e-14 
   16       1.133986885326e-10       8.861085899362e-16       1.541428809951e-13       1.144011672259e-17       5.213377212575e-10       3.548444773652e-11       3.238335432485e-14 
   17       1.148761279712e-10       8.365285194631e-16       1.639896646557e-13       1.288838003968e-17       4.709326818000e-10       3.251068053155e-11      -4.664499143960e-15 
   18       1.164052897118e-10       8.612608896942e-16       1.746735431006e-13       1.442466108539e-17       4.272104224092e-10       2.981652394016e-11      -3.437505987454e-14 
   19       1.180098489170e-10       9.318674482211e-16       1.850010334516e-13       1.604904316261e-17       3.894755285983e-10       2.741826841121e-11      -5.456909740752e-14 
   20       1.197090322385e-10       1.007404628557e-15       1.939566432977e-13       1.776155116195e-17       3.562581413455e-10       2.533964608734e-11      -6.441141231741e-14 
   21       1.214833314773e-10       1.073430174445e-15       2.012842673840e-13       1.956217444368e-17       3.270312830221e-10       2.352445317514e-11      -6.486275680798e-14 
   22       1.232746467059e-10       1.127397832044e-15       2.070729741669e-13       2.145085703728e-17       3.010928978103e-10       2.186264155652e-11      -5.822215786241e-14 
   23       1.251053632819e-10       1.186878535259e-15       2.116757742937e-13       2.342752559604e-17       2.780827093987e-10       2.034398765734e-11      -4.688213454175e-14 
   24       1.269993286492e-10       1.276836599255e-15       2.156149641604e-13       2.549207953720e-17       2.574643298673e-10       1.897177819206e-11      -3.369844016466e-14 
   25       1.289433133319e-10       1.408104492304e-15       2.193674602263e-13       2.764442455754e-17       2.389932053791e-10       1.773482086251e-11      -2.086944297241e-14 
   26       1.309008300680e-10       1.584910004252e-15       2.234116587495e-13       2.988446042086e-17       2.223334442008e-10       1.660670908359e-11      -1.042976394099e-14 
   27       1.328800020735e-10       1.800887228240e-15       2.280173183724e-13       3.221211094248e-17       2.072840721941e-10       1.557974690759e-11      -3.281956723221e-15 
   28       1.348924696783e-10       2.045995969852e-15       2.333304259878e-13       3.462731637161e-17       1.935843810840e-10       1.464478587904e-11       1.778360748406e-16 
   29       1.369452824027e-10       2.318043939797e-15       2.392123501799e-13       3.713007049250e-17       1.811633509229e-10       1.379798842945e-11       2.133369302462e-16 
   30       1.390310875773e-10       2.616778112950e-15       2.453569606809e-13       3.972039886671e-17       1.698862628583e-10       1.302842148221e-11      -2.492267364918e-15 
   31       1.411323952118e-10       2.941489359877e-15       2.513675545911e-13       4.239835961397e-17       1.595215335534e-10       1.231845213593e-11      -7.004075647061e-15 
   32       1.432535495860e-10       3.291273542291e-15       2.568688941242e-13       4.516407365033e-17       1.500152931085e-10       1.166477896358e-11      -1.240760075267e-14 
   33       1.453981962374e-10       3.664799466457e-15       2.614232394598e-13       4.801771354209e-17       1.413002843318e-10       1.106393977427e-11      -1.760066266655e-14 
   34       1.475632312076e-10       4.060547245847e-15       2.645744896492e-13       5.095949813122e-17       1.332543983945e-10       1.050848468838e-11      -2.144832990388e-14 
   35       1.497509094740e-10       4.478004719645e-15       2.661276913140e-13       5.398968428866e-17       1.258361369003e-10       9.994794162331e-12      -2.363601454645e-14 
   36       1.519592788182e-10       4.916868044090e-15       2.659650061705e-13       5.710857998432e-17       1.189855134112e-10       9.517202149519e-12      -2.411141125077e-14 
   37       1.541826896348e-10       5.377351477111e-15       2.640029605248e-13       6.031653091089e-17       1.126128389537e-10       9.068047337365e-12      -2.291868566087e-14 
   38       1.564275928546e-10       5.862346123234e-15       2.602961509951e-13       6.361385184777e-17       1.067014911409e-10       8.646317873384e-12      -2.038644006906e-14 
   39       1.587008644968e-10       6.376026371258e-15       2.549717139989e-13       6.700087826604e-17       1.012326368069e-10       8.251408176442e-12      -1.701387048871e-14 
   40       1.610049240412e-10       6.923334772782e-15       2.482056452287e-13       7.047798819947e-17       9.615398329589e-11       7.880557341893e-12      -1.343155719068e-14 
   41       1.633383993919e-10       7.508870661927e-15       2.401871910507e-13       7.404556816025e-17       9.139797320549e-11       7.530099274354e-12      -1.028217051673e-14 
   42       1.656996102708e-10       8.133003771756e-15       2.309904228024e-13       7.770389099717e-17       8.695050725918e-11       7.200166695962e-12      -7.795073984464e-15 
   43       1.680833588698e-10       8.794577472260e-15       2.206662178779e-13       8.145320285843e-17       8.279968128609e-11       6.891193459057e-12      -6.087809771612e-15 
   44       1.704794296379e-10       9.491929207494e-15       2.092779552246e-13       8.529375675502e-17       7.891516416542e-11       6.602511337290e-12      -5.281959234249e-15 
   45       1.728770699129e-10       1.022336708684e-14       1.968658023673e-13       8.922577529148e-17       7.525901496463e-11       6.332729436484e-12      -5.446302728404e-15 
   46       1.752810425378e-10       1.098884287385e-14       1.833256607033e-13       9.324932516185e-17       7.182544653611e-11       6.081229127668e-12      -6.406454546593e-15 
   47       1.776996408574e-10       1.178872623821e-14       1.684948842165e-13       9.736440542854e-17       6.861045509807e-11       5.846956195259e-12      -7.878013644432e-15 
   48       1.801400513090e-10       1.262333865632e-14       1.521838107444e-13       1.015709797768e-16       6.559982927316e-11       5.627921282338e-12      -9.514933185079e-15 
   49       1.826082062088e-10       1.349295154166e-14       1.341741786932e-13       1.058689745320e-16       6.276839101774e-11       5.421133184151e-12      -1.090607936125e-14 
   50       1.851081530640e-10       1.439781482889e-14       1.142672016398e-13       1.102582654080e-16       6.008757596790e-11       5.223450711655e-12      -1.167313613806e-14 
   51       1.876403022263e-10       1.533825621056e-14       9.244684922906e-14       1.147386381102e-16       5.755236123167e-11       5.034565637562e-12      -1.180363253209e-14 
   52       1.902024491164e-10       1.631460560527e-14       6.875815022557e-14       1.193098136114e-16       5.516033474147e-11       4.854714131009e-12      -1.140236353557e-14 
   53       1.927900501921e-10       1.732716663212e-14       4.326214397336e-14       1.239714560336e-16       5.290363674120e-11       4.683806032109e-12      -1.059924145005e-14 
   54       1.953960529836e-10       1.837621617413e-14       1.603663395281e-14       1.287231701340e-16       5.076859315875e-11       4.521401372280e-12      -9.550623928198e-15 
   55       1.980134759324e-10       1.946195482949e-14      -1.283839504476e-14       1.335645405526e-16       4.873988453924e-11       4.366898652157e-12      -8.415888224358e-15 
   56       2.006442877826e-10       2.058434485092e-14      -4.333049400039e-14       1.384952667250e-16       4.681510553567e-11       4.220208236874e-12      -7.277296759551e-15 
   57       2.032924363139e-10       2.174323118236e-14      -7.541606346071e-14       1.435150570831e-16       4.499318013147e-11       4.081205120143e-12      -6.202550612019e-15 
   58       2.059612303359e-10       2.293838474511e-14      -1.090659466170e-13       1.486235893650e-16       4.326995718580e-11       3.949516925324e-12      -5.268154862842e-15 
   59       2.086532768580e-10       2.416950008790e-14      -1.442452732696e-13       1.538205097295e-16       4.163802051625e-11       3.824508676055e-12      -4.559782204328e-15 
   60       2.113704182596e-10       2.543619303682e-14      -1.809133037922e-13       1.591054318699e-16       4.008649898147e-11       3.705267566876e-12      -4.172636548402e-15 
   61       2.141139771220e-10       2.673804093594e-14      -2.190357523264e-13       1.644780083122e-16       3.860408504492e-11       3.590849311008e-12      -4.182675305941e-15 
   62       2.168856970812e-10       2.807471924019e-14      -2.586253416774e-13       1.699381650161e-16       3.718931186941e-11       3.481116252858e-12      -4.551905380704e-15 
   63       2.196869026278e-10       2.944589155162e-14      -2.997101159392e-13       1.754859180999e-16       3.584225651329e-11       3.376061210214e-12      -5.202378332576e-15 
   64       2.225181580634e-10       3.085116875551e-14      -3.423219996979e-13       1.811213076802e-16       3.456144863675e-11       3.275555704968e-12      -6.042906007468e-15 
   65       2.253792144326e-10       3.229010802177e-14      -3.864970379526e-13       1.868443992758e-16       3.334378238712e-11       3.179343033394e-12      -6.968499513375e-15 
   66       2.282689564550e-10       3.376221180626e-14      -4.322756360364e-13       1.926552852123e-16       3.218442828426e-11       3.087031336412e-12      -7.859808196433e-15 
   67       2.311853494568e-10       3.526692685226e-14      -4.797027995371e-13       1.985540860265e-16       3.107674510585e-11       2.998086669859e-12      -8.582558616973e-15 
   68       2.341263703375e-10       3.680366203820e-14      -5.288161535235e-13       2.045409570048e-16       3.001405393999e-11       2.911988275910e-12      -9.020395187975e-15 
   69       2.370931381427e-10       3.837184835298e-14      -5.796066449249e-13       2.106161061966e-16       2.899557472918e-11       2.828746421763e-12      -9.182383353008e-15 
   70       2.400873254083e-10       3.997088933511e-14      -6.320502718380e-13       2.167797825906e-16       2.802153986032e-11       2.748477521944e-12      -9.116381618886e-15 
   71       2.431102028511e-10       4.160014279419e-14      -6.861195283554e-13       2.230322728122e-16       2.709139866653e-11       2.671248489616e-12      -8.877855222340e-15 
   72       2.461626114680e-10       4.325892029426e-14      -7.417833319369e-13       2.293739026588e-16       2.620377693822e-11       2.597073955217e-12      -8.530169368538e-15 
   73       2.492449346345e-10       4.494648663722e-14      -7.990069507807e-13       2.358050386358e-16       2.535643643422e-11       2.525913485098e-12      -8.144882469606e-15 
   74       2.523570702043e-10       4.666205934620e-14      -8.577519311948e-13       2.423260894921e-16       2.454623439284e-11       2.457668800158e-12      -7.802039383150e-15 
   75       2.554984026077e-10       4.840480814892e-14      -9.179760249677e-13       2.489375077560e-16       2.376908304298e-11       2.392180994482e-12      -7.590464650776e-15 
   76       2.586682078315e-10       5.017379967608e-14      -9.796353383857e-13       2.556397123172e-16       2.302096475792e-11       2.329275544531e-12      -7.585693913967e-15 
   77       2.618670152904e-10       5.196782105592e-14      -1.042691392257e-12       2.624328364801e-16       2.230128073503e-11       2.268912960602e-12      -7.778473932538e-15 
   78       2.650954447624e-10       5.378552306325e-14      -1.107105223348e-12       2.693169365435e-16       2.161004224092e-11       2.211060681848e-12      -8.133696378567e-15 
   79       2.683537768240e-10       5.562547043715e-14      -1.172835250313e-12       2.762920665963e-16       2.094685060434e-11       2.155645950640e-12      -8.611440339615e-15 
   80       2.716419338251e-10       5.748614024099e-14      -1.239837246624e-12       2.833582784340e-16       2.031087837416e-11       2.102554011187e-12      -9.166807009951e-15 
   81       2.749594608650e-10       5.936592022238e-14      -1.308064313498e-12       2.905156214760e-16       1.970085047723e-11       2.051626308154e-12      -9.749754381795e-15 
   82       2.783055067678e-10       6.126310717317e-14      -1.377466852827e-12       2.977641426814e-16       1.911502537629e-11       2.002658685287e-12      -1.030493193655e-14 
   83       2.816788050580e-10       6.317590528939e-14      -1.447992540100e-12       3.051038864666e-16       1.855117622787e-11       1.955399584033e-12      -1.077151533603e-14 
   84       2.850781845808e-10       6.510254065199e-14      -1.519591321575e-12       3.125348923213e-16       1.800713250406e-11       1.909609714743e-12      -1.109672865988e-14 
   85       2.885042402954e-10       6.704163006724e-14      -1.592231416906e-12       3.200571873875e-16       1.748254929696e-11       1.865256382129e-12      -1.127934888687e-14 
   86       2.919579058713e-10       6.899187064969e-14      -1.665885932112e-12       3.276707924920e-16       1.697739814513e-11       1.822348221897e-12      -1.133314398237e-14 
   87       2.954399386971e-10       7.095192944490e-14      -1.740528127731e-12       3.353757242168e-16       1.649142336496e-11       1.780875835541e-12      -1.127389037194e-14 
   88       2.989509097573e-10       7.292044374109e-14      -1.816131476192e-12       3.431719947772e-16       1.602413262816e-11       1.740811022120e-12      -1.111943767542e-14 
   89       3.024911935095e-10       7.489602138068e-14      -1.892669719184e-12       3.510596118998e-16       1.557478753918e-11       1.702106010028e-12      -1.088977344087e-14 
   90       3.060609577622e-10       7.687724107189e-14      -1.970116925024e-12       3.590385787009e-16       1.514239421271e-11       1.664692688770e-12      -1.060708787869e-14 
   91       3.096601535508e-10       7.886265270034e-14      -2.048447546025e-12       3.671088935637e-16       1.472569385112e-11       1.628481840734e-12      -1.029583859557e-14 
   92       3.132885050160e-10       8.085077764059e-14      -2.127636475864e-12       3.752705500172e-16       1.432315332193e-11       1.593362372964e-12      -9.982815328591e-15 
   93       3.169456892584e-10       8.284009689487e-14      -2.207653216306e-12       3.835236336677e-16       1.393332922048e-11       1.559229507678e-12      -9.691839662241e-15 
   94       3.206319288360e-10       8.482901279164e-14      -2.288443249179e-12       3.918686299355e-16       1.355604315862e-11       1.526075872414e-12      -9.426811698007e-15 
   95       3.243474700768e-10       8.681588207576e-14      -2.369943955775e-12       4.003061625920e-16       1.319136664069e-11       1.493912753220e-12      -9.186221425165e-15 
   96       3.280923936269e-10       8.879902771066e-14      -2.452090234685e-12       4.088369020235e-16       1.283925909004e-11       1.462741990857e-12      -8.968277755865e-15 
   97       3.318666069347e-10       9.077673902285e-14      -2.534814478312e-12       4.174615664416e-16       1.249956355333e-11       1.432555610089e-12      -8.770899614448e-15 
   98       3.356698367362e-10       9.274727184635e-14      -2.618046549380e-12       4.261809230935e-16       1.217200240470e-11       1.403335448964e-12      -8.591707026766e-15 
   99       3.395016215400e-10       9.470884866724e-14      -2.701713757439e-12       4.349957894723e-16       1.185617305002e-11       1.375052788100e-12      -8.428012209506e-15 
  100       3.433613041122e-10       9.665965876811e-14      -2.785740835377e-12       4.439070345275e-16       1.155154363115e-11       1.347667979974e-12      -8.276810659506e-15 
  101       3.472480239611e-10       9.859785837257e-14      -2.870049915927e-12       4.529155798747e-16       1.125744873013e-11       1.321130078203e-12      -8.134772243080e-15 
  102       3.511607098228e-10       1.005215707897e-13      -2.954560508178e-12       4.620224010064e-16       1.097308507343e-11       1.295376466830e-12      -7.998232285330e-15 
  103       3.550980721453e-10       1.024288865586e-13      -3.039189474081e-12       4.712285285022e-16       1.069750723620e-11       1.270332489611e-12      -7.863182659476e-15 
  104       3.590588970751e-10       1.043179228340e-13      -3.123856052437e-12       4.805349592608e-16       1.042984218500e-11       1.245928902029e-12      -7.726158464168e-15 
  105       3.630429898287e-10       1.061870103684e-13      -3.208497754370e-12       4.899423739338e-16       1.016997516519e-11       1.222157710718e-12      -7.587053659570e-15 
  106       3.670503453394e-10       1.080345321756e-13      -3.293056581302e-12       4.994513833999e-16       9.917948889720e-12       1.199023221127e-12      -7.446670941265e-15 
  107       3.710808539856e-10       1.098588673307e-13      -3.377474200815e-12       5.090626155535e-16       9.673751106287e-12       1.176524715631e-12      -7.305861036812e-15 
