# dimensionless total [l(l+1)/2pi] C_l's
# for l=2 to 3000, i.e. number of multipoles equal to 2999
#
# -> if you prefer output in CAMB/HealPix/LensPix units/order, set 'format' to 'camb' in input file
# -> if you don't want to see such a header, set 'headers' to 'no' in input file
# -> for CMB lensing (phi), these are C_l^phi-phi for the lensing potential.
#    Remember the conversion factors:
#    C_l^dd (deflection) = l(l+1) C_l^phi-phi
#    C_l^gg (shear/convergence) = 1/4 (l(l+1))^2 C_l^phi-phi
#
# 1:l     2:TT                     3:EE                     4:TE                     5:BB                     6:phiphi                 7:TPhi                   8:Ephi               
    2       1.318653986447e-10       6.857942298231e-15       5.023025792350e-13       0.000000000000e+00       9.437209464370e-09       3.545503218666e-10      -2.460799956909e-12 
    3       1.276782917918e-10       1.190011995902e-14       6.166363540832e-13       0.000000000000e+00       5.774860119287e-09       2.626876276864e-10      -2.179163133293e-12 
    4       1.223299512460e-10       1.432978863090e-14       6.349093545120e-13       0.000000000000e+00       4.004851973052e-09       2.045146436388e-10      -1.764229619514e-12 
    5       1.177773925732e-10       1.372709284611e-14       5.964254365334e-13       0.000000000000e+00       2.984508956587e-09       1.647366616225e-10      -1.338279723636e-12 
    6       1.143481039595e-10       1.102014248500e-14       5.283530341023e-13       0.000000000000e+00       2.328417955186e-09       1.359322148501e-10      -9.439490346474e-13 
    7       1.118976418409e-10       7.618228392097e-15       4.497593308786e-13       0.000000000000e+00       1.876901679505e-09       1.142670982276e-10      -6.040310909245e-13 
    8       1.103567236907e-10       4.662949758824e-15       3.721556945833e-13       0.000000000000e+00       1.550471606219e-09       9.755746172201e-11      -3.295631439024e-13 
    9       1.095303423901e-10       2.698789890686e-15       3.024039939947e-13       0.000000000000e+00       1.305227653860e-09       8.434540692285e-11      -1.237009953927e-13 
   10       1.092133882550e-10       1.711614609702e-15       2.445640883914e-13       0.000000000000e+00       1.115283543468e-09       7.363857699344e-11       1.648602163295e-14 
   11       1.093793782880e-10       1.372147973947e-15       2.004934178229e-13       0.000000000000e+00       9.340435445790e-10       6.514475489515e-11       9.771508627064e-14 
   12       1.098736288244e-10       1.303525355977e-15       1.703631311920e-13       0.000000000000e+00       8.156370054971e-10       5.775531102567e-11       1.322367437704e-13 
   13       1.106513326587e-10       1.253198022826e-15       1.531020077735e-13       0.000000000000e+00       7.185099099465e-10       5.164608679329e-11       1.313607421071e-13 
   14       1.116570872505e-10       1.136069970357e-15       1.466417885221e-13       0.000000000000e+00       6.377705647940e-10       4.659964805073e-11       1.071488449401e-13 
   15       1.128192720776e-10       9.841563269804e-16       1.483017233255e-13       0.000000000000e+00       5.698636906977e-10       4.207052124511e-11       6.993681525866e-14 
   16       1.141134687327e-10       8.652859538921e-16       1.552965448051e-13       0.000000000000e+00       5.121624416754e-10       3.825557643994e-11       2.936424690421e-14 
   17       1.155440741486e-10       8.220351390233e-16       1.650982615181e-13       0.000000000000e+00       4.626938644790e-10       3.502426650677e-11      -7.755930758037e-15 
   18       1.170560723870e-10       8.508815960175e-16       1.757150112894e-13       0.000000000000e+00       4.197797764947e-10       3.219843542265e-11      -3.686352949118e-14 
   19       1.186557483846e-10       9.217672705398e-16       1.859413258259e-13       0.000000000000e+00       3.827381044534e-10       2.971225025209e-11      -5.598403926242e-14 
   20       1.203214036766e-10       9.938129502188e-16       1.946956387255e-13       0.000000000000e+00       3.501280968586e-10       2.746211794207e-11      -6.464491473066e-14 
   21       1.220599001985e-10       1.055201395687e-15       2.018159815667e-13       0.000000000000e+00       3.214330088175e-10       2.544193158050e-11      -6.400402975397e-14 
   22       1.238553900049e-10       1.106984926457e-15       2.075280505723e-13       0.000000000000e+00       2.959638137909e-10       2.364186329413e-11      -5.651352784912e-14 
   23       1.257021784193e-10       1.167615513624e-15       2.121478492085e-13       0.000000000000e+00       2.733676020666e-10       2.202199738718e-11      -4.467033027611e-14 
   24       1.275785662737e-10       1.261720460857e-15       2.161130998326e-13       0.000000000000e+00       2.531187145765e-10       2.052047325382e-11      -3.138773975728e-14 
   25       1.294916303736e-10       1.398566566046e-15       2.199411415499e-13       0.000000000000e+00       2.349772404548e-10       1.915475012449e-11      -1.876873017032e-14 
   26       1.314420637075e-10       1.580403944894e-15       2.241734825380e-13       0.000000000000e+00       2.186133020189e-10       1.794897002375e-11      -8.699470963271e-15 
   27       1.334281179487e-10       1.800357384007e-15       2.290180315670e-13       0.000000000000e+00       2.038295206548e-10       1.687429850184e-11      -2.057565859431e-15 
   28       1.354384139964e-10       2.048420059742e-15       2.345214455798e-13       0.000000000000e+00       1.903699270729e-10       1.588014721382e-11       7.684862215306e-16 
   29       1.374802380319e-10       2.322778446807e-15       2.405202412994e-13       0.000000000000e+00       1.781652090513e-10       1.496202174112e-11       1.372233140874e-16 
   30       1.395550523128e-10       2.623795584275e-15       2.467075461021e-13       0.000000000000e+00       1.670836980667e-10       1.412280682082e-11      -3.122499227015e-15 
   31       1.416541342690e-10       2.951344572037e-15       2.526880003909e-13       0.000000000000e+00       1.568985587539e-10       1.335791490512e-11      -7.933995625977e-15 
   32       1.437814296017e-10       3.304255688025e-15       2.580855233352e-13       0.000000000000e+00       1.475568393339e-10       1.266082247000e-11      -1.338740742923e-14 
   33       1.459366553966e-10       3.680584856176e-15       2.624624245777e-13       0.000000000000e+00       1.389921620316e-10       1.201804037126e-11      -1.844414729761e-14 
   34       1.481122390856e-10       4.078302536380e-15       2.653660289885e-13       0.000000000000e+00       1.310842687775e-10       1.141242178320e-11      -2.204368237956e-14 
   35       1.503079859462e-10       4.497361294797e-15       2.666122420199e-13       0.000000000000e+00       1.237924797343e-10       1.084269519007e-11      -2.391034645793e-14 
   36       1.525197701132e-10       4.938343595453e-15       2.660993780718e-13       0.000000000000e+00       1.170580904580e-10       1.030998944356e-11      -2.402701767476e-14 
   37       1.547402045094e-10       5.402315466396e-15       2.637640577762e-13       0.000000000000e+00       1.107932099333e-10       9.813269468849e-12      -2.247934151113e-14 
   38       1.569773976081e-10       5.892158510328e-15       2.596828398454e-13       0.000000000000e+00       1.049815606089e-10       9.352404077456e-12      -1.963412958368e-14 
   39       1.592413300659e-10       6.411731309785e-15       2.540085638765e-13       0.000000000000e+00       9.960463245550e-11       8.925664427684e-12      -1.603273251647e-14 
   40       1.615382385541e-10       6.965567595721e-15       2.469475670550e-13       0.000000000000e+00       9.461102477512e-11       8.528599715818e-12      -1.235489613522e-14 
   41       1.638702398452e-10       7.557859618786e-15       2.387121974032e-13       0.000000000000e+00       8.993433998157e-11       8.155587787235e-12      -9.282063879030e-15 
   42       1.662351766443e-10       8.188908197960e-15       2.293514735089e-13       0.000000000000e+00       8.556076676876e-11       7.805663226016e-12      -7.012027505271e-15 
   43       1.686259368577e-10       8.857588487258e-15       2.188711019558e-13       0.000000000000e+00       8.147866909185e-11       7.478187991960e-12      -5.601498538569e-15 
   44       1.710299073301e-10       9.562279500142e-15       2.072796010738e-13       0.000000000000e+00       7.765830748838e-11       7.171115980413e-12      -5.097252445638e-15 
   45       1.734341423556e-10       1.030133306622e-14       1.945666164869e-13       0.000000000000e+00       7.406245642860e-11       6.881753457160e-12      -5.495171388499e-15 
   46       1.758437956871e-10       1.107471958518e-14       1.806302985867e-13       0.000000000000e+00       7.068543747861e-11       6.609579834834e-12      -6.605160449215e-15 
   47       1.782684165798e-10       1.188282253330e-14       1.653280972342e-13       0.000000000000e+00       6.752330414268e-11       6.354076473376e-12      -8.144121854544e-15 
   48       1.807166674496e-10       1.272598017337e-14       1.484952134991e-13       0.000000000000e+00       6.456206923158e-11       6.113863687502e-12      -9.769163874057e-15 
   49       1.831961880724e-10       1.360448388904e-14       1.299432862584e-13       0.000000000000e+00       6.177695821887e-11       5.886637213999e-12      -1.107428646314e-14 
   50       1.857123674113e-10       1.451859718656e-14       1.095014407581e-13       0.000000000000e+00       5.913986900866e-11       5.669861814798e-12      -1.169113400800e-14 
   51       1.882645811383e-10       1.546862264484e-14       8.715561693229e-14       0.000000000000e+00       5.664587057769e-11       5.463221435029e-12      -1.163118374726e-14 
   52       1.908486980912e-10       1.645485025901e-14       6.294478988507e-14       0.000000000000e+00       5.429260647075e-11       5.266724292504e-12      -1.103071146008e-14 
   53       1.934579006215e-10       1.747753768473e-14       3.692257731114e-14       0.000000000000e+00       5.207236513337e-11       5.079976628534e-12      -1.005638778688e-14 
   54       1.960824973881e-10       1.853690954507e-14       9.157919597714e-15       0.000000000000e+00       4.997171945219e-11       4.902154805145e-12      -8.906861147789e-15 
   55       1.987132327392e-10       1.963312343014e-14      -2.027745720623e-14       0.000000000000e+00       4.797562362566e-11       4.732303951656e-12      -7.777715581338e-15 
   56       2.013526064570e-10       2.076615959255e-14      -5.135185767112e-14       0.000000000000e+00       4.608172137327e-11       4.570384706173e-12      -6.742523855292e-15 
   57       2.040060381752e-10       2.193590263592e-14      -8.404024593669e-14       0.000000000000e+00       4.428896081936e-11       4.416437633238e-12      -5.845018000877e-15 
   58       2.066785673010e-10       2.314217047402e-14      -1.183117989284e-13       0.000000000000e+00       4.259326585177e-11       4.270264607299e-12      -5.133278065074e-15 
   59       2.093748020404e-10       2.438471233993e-14      -1.541297412084e-13       0.000000000000e+00       4.098734932446e-11       4.131413632635e-12      -4.659888077861e-15 
   60       2.120988684229e-10       2.566320679535e-14      -1.914511798268e-13       0.000000000000e+00       3.946052626013e-11       3.999163663270e-12      -4.482092019445e-15 
   61       2.148541025824e-10       2.697728072029e-14      -2.302398595841e-13       0.000000000000e+00       3.800168171747e-11       3.872731499397e-12      -4.641494262062e-15 
   62       2.176421622080e-10       2.832657576694e-14      -2.705081480770e-13       0.000000000000e+00       3.660937544076e-11       3.751981086367e-12      -5.097483577171e-15 
   63       2.204636242850e-10       2.971069335734e-14      -3.122842244757e-13       0.000000000000e+00       3.528368415411e-11       3.636847212713e-12      -5.779074190241e-15 
   64       2.233181662880e-10       3.112917372026e-14      -3.556002306604e-13       0.000000000000e+00       3.402316205307e-11       3.527119509967e-12      -6.603559341059e-15 
   65       2.262045070600e-10       3.258149456613e-14      -4.004925160272e-13       0.000000000000e+00       3.282475410231e-11       3.422434318897e-12      -7.476018212616e-15 
   66       2.291203476907e-10       3.406706976194e-14      -4.470018822945e-13       0.000000000000e+00       3.168370933340e-11       3.322266555753e-12      -8.288822859989e-15 
   67       2.320623123946e-10       3.558524800624e-14      -4.951738283085e-13       0.000000000000e+00       3.059349414254e-11       3.225921578501e-12      -8.921145139227e-15 
   68       2.350271694491e-10       3.713534974518e-14      -5.450462705403e-13       0.000000000000e+00       2.954753796086e-11       3.132724395021e-12      -9.269322224348e-15 
   69       2.380159134405e-10       3.871678956908e-14      -5.966092680696e-13       0.000000000000e+00       2.854507481659e-11       3.042649988598e-12      -9.346200144835e-15 
   70       2.410304077802e-10       4.032897635020e-14      -6.498375391068e-13       0.000000000000e+00       2.758633510994e-11       2.955806687961e-12      -9.201126577620e-15 
   71       2.440721519231e-10       4.197127685503e-14      -7.047021890848e-13       0.000000000000e+00       2.667077884542e-11       2.872247094670e-12      -8.891164160013e-15 
   72       2.471422549842e-10       4.364301539731e-14      -7.611706351501e-13       0.000000000000e+00       2.579705579334e-11       2.791964996467e-12      -8.481386640787e-15 
   73       2.502414093544e-10       4.534347349097e-14      -8.192065306536e-13       0.000000000000e+00       2.496296565125e-11       2.714892280625e-12      -8.045175031264e-15 
   74       2.533698643182e-10       4.707188950306e-14      -8.787696896425e-13       0.000000000000e+00       2.416541820545e-11       2.640895847298e-12      -7.664513756401e-15 
   75       2.565273996690e-10       4.882745830675e-14      -9.398160113506e-13       0.000000000000e+00       2.340039349250e-11       2.569774522865e-12      -7.430286805878e-15 
   76       2.597136696136e-10       5.060926041484e-14      -1.002300059285e-12       0.000000000000e+00       2.266394030080e-11       2.501315942042e-12      -7.419505652010e-15 
   77       2.629293652035e-10       5.241603522817e-14      -1.066183508365e-12       0.000000000000e+00       2.195546995061e-11       2.435485992489e-12      -7.621544231184e-15 
   78       2.661752169300e-10       5.424636561535e-14      -1.131428108130e-12       0.000000000000e+00       2.127499356273e-11       2.372268469018e-12      -7.998928106946e-15 
   79       2.694516247553e-10       5.609874299986e-14      -1.197993144068e-12       0.000000000000e+00       2.062211875673e-11       2.311606342661e-12      -8.509035355555e-15 
   80       2.727586393227e-10       5.797156556697e-14      -1.265835416537e-12       0.000000000000e+00       1.999603110444e-11       2.253399903724e-12      -9.103919684267e-15 
   81       2.760959431658e-10       5.986313647062e-14      -1.334909219695e-12       0.000000000000e+00       1.939547558343e-11       2.197504904842e-12      -9.730133549611e-15 
   82       2.794628319183e-10       6.177166204036e-14      -1.405166320422e-12       0.000000000000e+00       1.881873803052e-11       2.143730704043e-12      -1.032855127567e-14 
   83       2.828581955233e-10       6.369524998819e-14      -1.476555937247e-12       0.000000000000e+00       1.826362659525e-11       2.091838407796e-12      -1.083419217238e-14 
   84       2.862809842899e-10       6.563204127566e-14      -1.549029133932e-12       0.000000000000e+00       1.772800498075e-11       2.041599525961e-12      -1.119058548429e-14 
   85       2.897317369946e-10       6.758063476011e-14      -1.622552883248e-12       0.000000000000e+00       1.721153436174e-11       1.992987176578e-12      -1.139598887302e-14 
   86       2.932112728333e-10       6.953972998554e-14      -1.697098306875e-12       0.000000000000e+00       1.671418757819e-11       1.946013321545e-12      -1.146454330094e-14 
   87       2.967202186131e-10       7.150800022818e-14      -1.772636520380e-12       0.000000000000e+00       1.623571388705e-11       1.900670245460e-12      -1.141247896756e-14 
   88       3.002589981106e-10       7.348409294982e-14      -1.849138686339e-12       0.000000000000e+00       1.577562968949e-11       1.856929715691e-12      -1.125818282828e-14 
   89       3.038278214304e-10       7.546663025110e-14      -1.926576067459e-12       0.000000000000e+00       1.533320925814e-11       1.814742142431e-12      -1.102226611325e-14 
   90       3.074266743627e-10       7.745420932476e-14      -2.004920079698e-12       0.000000000000e+00       1.490747546430e-11       1.774035738766e-12      -1.072763184610e-14 
   91       3.110553077426e-10       7.944540290899e-14      -2.084142345389e-12       0.000000000000e+00       1.449719050516e-11       1.734715680739e-12      -1.039954236276e-14 
   92       3.147132268072e-10       8.143875974070e-14      -2.164214746358e-12       0.000000000000e+00       1.410084663105e-11       1.696663267409e-12      -1.006568683027e-14 
   93       3.183999140314e-10       8.343277860396e-14      -2.245103908398e-12       0.000000000000e+00       1.371702423039e-11       1.659764653666e-12      -9.750786823883e-15 
   94       3.221155590837e-10       8.542582502608e-14      -2.326753590385e-12       0.000000000000e+00       1.334554783139e-11       1.624003816314e-12      -9.459338332060e-15 
   95       3.258604194910e-10       8.741620283243e-14      -2.409099732372e-12       0.000000000000e+00       1.298648762769e-11       1.589382082196e-12      -9.190386905815e-15 
   96       3.296345896066e-10       8.940217952453e-14      -2.492075765236e-12       0.000000000000e+00       1.263980343864e-11       1.555889373093e-12      -8.942750970521e-15 
   97       3.334379931734e-10       9.138198637088e-14      -2.575612587359e-12       0.000000000000e+00       1.230534047926e-11       1.523503771731e-12      -8.715014369528e-15 
   98       3.372703758873e-10       9.335381849780e-14      -2.659638541310e-12       0.000000000000e+00       1.198282513007e-11       1.492191087786e-12      -8.505518907780e-15 
   99       3.411312979600e-10       9.531583498028e-14      -2.744079390524e-12       0.000000000000e+00       1.167186070700e-11       1.461904423884e-12      -8.312356895430e-15 
  100       3.450201266824e-10       9.726615893282e-14      -2.828858295986e-12       0.000000000000e+00       1.137192323129e-11       1.432583741606e-12      -8.133363691458e-15 
  101       3.489360289875e-10       9.920287760023e-14      -2.913895792916e-12       0.000000000000e+00       1.108235719934e-11       1.404155427492e-12      -7.966110247285e-15 
  102       3.528779640140e-10       1.011240424485e-13      -2.999109767442e-12       0.000000000000e+00       1.080237135263e-11       1.376531859044e-12      -7.807895650391e-15 
  103       3.568446756689e-10       1.030276692557e-13      -3.084415433290e-12       0.000000000000e+00       1.053103444761e-11       1.349610970730e-12      -7.655739667933e-15 
  104       3.608349805759e-10       1.049118075879e-13      -3.169730538541e-12       0.000000000000e+00       1.026748659207e-11       1.323300102216e-12      -7.507011001359e-15 
  105       3.648486922376e-10       1.067747597216e-13      -3.254991837178e-12       0.000000000000e+00       1.001161487878e-11       1.297592146786e-12      -7.361424764719e-15 
  106       3.688858084305e-10       1.086148916011e-13      -3.340140809491e-12       0.000000000000e+00       9.763461558831e-12       1.272498928256e-12      -7.219302191871e-15 
  107       3.729462228284e-10       1.104305669381e-13      -3.425118664439e-12       0.000000000000e+00       9.523014786502e-12       1.248027672180e-12      -7.080958556057e-15 
