# total lensed [l(l+1)/2pi] C_l's (units: [microK]^2)
# for l=2 to 2500, i.e. number of multipoles equal to 2499
#
# -> if you don't want to see such a header, set 'headers' to 'no' in input file
# -> for CMB lensing (d), these are C_l^dd for the deflection field.
#    Remember the conversion factors:
#    C_l^dd (deflection) = l(l+1) C_l^phi-phi
#    C_l^gg (shear/convergence) = 1/4 (l(l+1))^2 C_l^phi-phi
#
# 1:l     2:TT                     3:EE                     4:BB                     5:TE                     6:dd                     7:dT                     8:dE                 
    2       1.119094159235e+03       5.315201490262e-02       1.808145508820e-06       3.417438799990e+00       5.200327827821e-08       3.412637942294e-03      -1.638943252940e-05 
    3       1.051736901733e+03       8.731998120124e-02       3.617861140038e-06       4.333490086478e+00       6.408350764826e-08       3.425222873029e-03      -2.017846636234e-05 
    4       9.844147886194e+02       9.862184431797e-02       6.033204463616e-06       4.480893150473e+00       7.450170720484e-08       3.343117958982e-03      -2.045705639287e-05 
    5       9.313959472031e+02       8.792163702269e-02       9.056122765094e-06       4.164982327383e+00       8.360774847831e-08       3.228023740384e-03      -1.819439552672e-05 
    6       8.928053898913e+02       6.515420234796e-02       1.268892913412e-05       3.618961264320e+00       9.158818987778e-08       3.102176335941e-03      -1.425346387233e-05 
    7       8.662073166162e+02       4.144019970699e-02       1.693422884979e-05       3.005419508733e+00       9.863705515879e-08       2.975420229101e-03      -9.511072557649e-06 
    8       8.487212590847e+02       2.378451023733e-02       2.179483773204e-05       2.421546855629e+00       1.048735950817e-07       2.851359805116e-03      -4.767922170768e-06 
    9       8.382906738720e+02       1.393363692989e-02       2.727369564987e-05       1.922287088857e+00       1.104042631266e-07       2.731167704126e-03      -6.720727839891e-07 
   10       8.331717594875e+02       9.996784525739e-03       3.337377855371e-05       1.535025787003e+00       1.153494503581e-07       2.616933649230e-03       2.340760415107e-06 
   11       8.321932504888e+02       8.943560966215e-03       4.009801244008e-05       1.267229727141e+00       1.169662946572e-07       2.519556745943e-03       4.052236359961e-06 
   12       8.346415586285e+02       8.471761020201e-03       4.744919255974e-05       1.110688374876e+00       1.208523087366e-07       2.418051747178e-03       4.529164281246e-06 
   13       8.394114437563e+02       7.657447679878e-03       5.542991094889e-05       1.046690183666e+00       1.243377105464e-07       2.327611214567e-03       3.961742589548e-06 
   14       8.458246083614e+02       6.624366844147e-03       6.404249500806e-05       1.051686669472e+00       1.274655217049e-07       2.236229996661e-03       2.646048600105e-06 
   15       8.539300892468e+02       5.843724980084e-03       7.328895938762e-05       1.101705499927e+00       1.302735327949e-07       2.154591723948e-03       9.630322159302e-07 
   16       8.635929660246e+02       5.597590109638e-03       8.317097288254e-05       1.174652306450e+00       1.327949324860e-07       2.081402385428e-03      -7.386801324988e-07 
   17       8.739233551987e+02       5.824681651249e-03       9.368984141459e-05       1.253241449763e+00       1.350576384223e-07       2.013579372913e-03      -2.172133747379e-06 
   18       8.851570451699e+02       6.245231912666e-03       1.048464996638e-04       1.326006717491e+00       1.370330778869e-07       1.945498977510e-03      -3.149728069733e-06 
   19       8.973612504084e+02       6.687743448234e-03       1.166415660184e-04       1.388537523583e+00       1.388996358397e-07       1.879639907582e-03      -3.591287530491e-06 
   20       9.100088101408e+02       7.035624619052e-03       1.290752877529e-04       1.438743432004e+00       1.405107263204e-07       1.817715804882e-03      -3.519299448164e-06 
   21       9.231992783523e+02       7.391443377627e-03       1.421477008337e-04       1.478711542285e+00       1.419590751630e-07       1.760459749688e-03      -3.023956985325e-06 
   22       9.369788422148e+02       7.941641763326e-03       1.558585647596e-04       1.512759288702e+00       1.432181065424e-07       1.705308283766e-03      -2.284400089030e-06 
   23       9.512400429385e+02       8.778329707856e-03       1.702075536108e-04       1.545191788555e+00       1.443621434694e-07       1.651704360141e-03      -1.465177822330e-06 
   24       9.657007785823e+02       9.948298363445e-03       1.851941905299e-04       1.580483682390e+00       1.453401924025e-07       1.598423837813e-03      -7.513799219785e-07 
   25       9.805084140010e+02       1.141317964347e-02       2.008180715846e-04       1.620955178346e+00       1.462101558137e-07       1.547724544047e-03      -2.515441710409e-07 
   26       9.957980426149e+02       1.310219689293e-02       2.170787857369e-04       1.667723477851e+00       1.469492921203e-07       1.501797133753e-03      -3.516391356040e-08 
   27       1.011437558631e+03       1.499506825961e-02       2.339761114449e-04       1.719492258172e+00       1.475862228049e-07       1.459817298465e-03      -9.690154582360e-08 
   28       1.027158863931e+03       1.708408809493e-02       2.515099652547e-04       1.773628120441e+00       1.480825912413e-07       1.419019412697e-03      -3.819608839211e-07 
   29       1.043028189127e+03       1.936476243451e-02       2.696806309350e-04       1.827118573536e+00       1.485159974744e-07       1.379658213703e-03      -8.274713586879e-07 
   30       1.059143559924e+03       2.183077272564e-02       2.884886283295e-04       1.876098888142e+00       1.489081512117e-07       1.342261271143e-03      -1.337079746144e-06 
   31       1.075526453933e+03       2.447305471495e-02       3.079347123875e-04       1.916310898991e+00       1.491742346196e-07       1.306561914464e-03      -1.789460321556e-06 
   32       1.092198409499e+03       2.728428038473e-02       3.280200314347e-04       1.945507452584e+00       1.493617905579e-07       1.272664599053e-03      -2.124396006015e-06 
   33       1.109113025328e+03       3.025570803182e-02       3.487460799706e-04       1.961905744017e+00       1.495009381189e-07       1.240128725650e-03      -2.297076691002e-06 
   34       1.126178164227e+03       3.338360303741e-02       3.701146579226e-04       1.964037029262e+00       1.495531797931e-07       1.207981906978e-03      -2.271664942779e-06 
   35       1.143441154404e+03       3.669614473447e-02       3.921277608018e-04       1.952410679463e+00       1.495523388644e-07       1.176546132341e-03      -2.074295418417e-06 
   36       1.160956151606e+03       4.023661442369e-02       4.147877000374e-04       1.928477972475e+00       1.495056579538e-07       1.146294153273e-03      -1.769922427617e-06 
   37       1.178737226470e+03       4.404757123703e-02       4.380970071052e-04       1.893914980389e+00       1.493717241028e-07       1.117418968120e-03      -1.438932604815e-06 
   38       1.196784755494e+03       4.813883172376e-02       4.620579096744e-04       1.849532873630e+00       1.491912718320e-07       1.090190664882e-03      -1.123856600305e-06 
   39       1.215058617737e+03       5.250903576956e-02       4.866727151136e-04       1.796043066250e+00       1.490022197223e-07       1.064637080031e-03      -8.617582260437e-07 
   40       1.233464545774e+03       5.715396129035e-02       5.119439696197e-04       1.734363682347e+00       1.487905089193e-07       1.040361038581e-03      -6.986114951205e-07 
   41       1.251897384596e+03       6.206844006155e-02       5.378742153486e-04       1.665240253857e+00       1.485062962794e-07       1.016739535944e-03      -6.758070038060e-07 
   42       1.270400161644e+03       6.725334034003e-02       5.644651314539e-04       1.587932063266e+00       1.481735568288e-07       9.938476987059e-04      -7.791976177623e-07 
   43       1.289048147576e+03       7.271051770016e-02       5.917181381216e-04       1.501117239105e+00       1.478192817164e-07       9.718411024027e-04      -9.671661550260e-07 
   44       1.307903146539e+03       7.844083844375e-02       6.196346269969e-04       1.403231245438e+00       1.474357528256e-07       9.506776076604e-04      -1.181032828795e-06 
   45       1.327008216464e+03       8.444496478819e-02       6.482157267874e-04       1.292720384097e+00       1.469935434013e-07       9.301966862347e-04      -1.357630264683e-06 
   46       1.346374231093e+03       9.072612206464e-02       6.774615239793e-04       1.168929274579e+00       1.465183608533e-07       9.104934480317e-04      -1.479214107425e-06 
   47       1.365986208568e+03       9.728806372844e-02       7.073716037528e-04       1.031452277289e+00       1.460401768664e-07       8.916458320793e-04      -1.541950246564e-06 
   48       1.385804459950e+03       1.041342948402e-01       7.379452449230e-04       8.798874588042e-01       1.455674229438e-07       8.735897895786e-04      -1.543232784832e-06 
   49       1.405762572147e+03       1.112680646126e-01       7.691814034527e-04       7.138365550354e-01       1.450804501204e-07       8.560953924825e-04      -1.481896099998e-06 
   50       1.425793521163e+03       1.186920175872e-01       8.010786773357e-04       5.330608647054e-01       1.445443067232e-07       8.388700201210e-04      -1.361005778942e-06 
   51       1.445921047674e+03       1.264070528358e-01       8.336352282587e-04       3.379989011585e-01       1.439739193763e-07       8.219791127407e-04      -1.197041855133e-06 
   52       1.466189597686e+03       1.344131422184e-01       8.668488101760e-04       1.293891876080e-01       1.433907384781e-07       8.055508932207e-04      -1.014782549135e-06 
   53       1.486637683166e+03       1.427096217286e-01       9.007167691289e-04      -9.186626458859e-02       1.428022165347e-07       7.896527903806e-04      -8.456602082073e-07 
   54       1.507297188749e+03       1.512951679760e-01       9.352360258818e-04      -3.246946548695e-01       1.421979640194e-07       7.742810089853e-04      -7.284172239202e-07 
   55       1.528191870577e+03       1.601682627627e-01       9.704034138900e-04      -5.681461849264e-01       1.415586812378e-07       7.593921122031e-04      -6.991812339324e-07 
   56       1.549334004369e+03       1.693287758417e-01       1.006216831301e-03      -8.223776257485e-01       1.408988047472e-07       7.450378474097e-04      -7.556843164322e-07 
   57       1.570725690306e+03       1.787767341561e-01       1.042674344720e-03      -1.087900301367e+00       1.402370741917e-07       7.312607129989e-04      -8.810703553005e-07 
   58       1.592358878955e+03       1.885118637907e-01       1.079773855510e-03      -1.365304737250e+00       1.395830129800e-07       7.180485971570e-04      -1.052865848048e-06 
   59       1.614214646499e+03       1.985335854706e-01       1.117513096271e-03      -1.655265090117e+00       1.389345618541e-07       7.053271755029e-04      -1.242431141984e-06 
   60       1.636262469977e+03       2.088410100599e-01       1.155889627319e-03      -1.958543577757e+00       1.382754963610e-07       6.929519878618e-04      -1.414391863299e-06 
   61       1.658472295763e+03       2.194325419534e-01       1.194901343667e-03      -2.275820756572e+00       1.375840638940e-07       6.807625386984e-04      -1.534992175779e-06 
   62       1.680855550170e+03       2.303045954032e-01       1.234548136895e-03      -2.607131815274e+00       1.368703773645e-07       6.687854947062e-04      -1.601858207440e-06 
   63       1.703432089898e+03       2.414525807595e-01       1.274830601755e-03      -2.952311036210e+00       1.361504996349e-07       6.570847550932e-04      -1.623141126975e-06 
   64       1.726217908541e+03       2.528712545450e-01       1.315749571018e-03      -3.311153708204e+00       1.354352185134e-07       6.457019151020e-04      -1.609650898042e-06 
   65       1.749224817745e+03       2.645547025134e-01       1.357306128150e-03      -3.683415030647e+00       1.347287410819e-07       6.346530590681e-04      -1.575095195304e-06 
   66       1.772460128353e+03       2.764963227063e-01       1.399501619990e-03      -4.068809017600e+00       1.340272782519e-07       6.239254256073e-04      -1.536326193457e-06 
   67       1.795926331568e+03       2.886888085108e-01       1.442337669429e-03      -4.467007401892e+00       1.333175160545e-07       6.134739449306e-04      -1.513595229241e-06 
   68       1.819623928113e+03       3.011247294084e-01       1.485816121398e-03      -4.877684692076e+00       1.325832228454e-07       6.032455499930e-04      -1.525841408254e-06 
   69       1.843561294143e+03       3.137984477368e-01       1.529938839793e-03      -5.300666394635e+00       1.318321823324e-07       5.932690828963e-04      -1.574271878772e-06 
   70       1.867746250822e+03       3.267045616630e-01       1.574707891987e-03      -5.735808994763e+00       1.310770290050e-07       5.835860804337e-04      -1.654293039687e-06 
   71       1.892182859129e+03       3.398373402298e-01       1.620125622655e-03      -6.182956543839e+00       1.303272427531e-07       5.742234749837e-04      -1.759954740176e-06 
   72       1.916871181523e+03       3.531907216996e-01       1.666194664745e-03      -6.641940743895e+00       1.295884196039e-07       5.651917583343e-04      -1.883840379527e-06 
   73       1.941807043604e+03       3.667583118987e-01       1.712917950451e-03      -7.112581032102e+00       1.288614867578e-07       5.564830801437e-04      -2.016953737127e-06 
   74       1.966981795786e+03       3.805333825602e-01       1.760298722185e-03      -7.594684665244e+00       1.281418603211e-07       5.480692810356e-04      -2.148602532634e-06 
   75       1.992382074952e+03       3.945088696688e-01       1.808340543548e-03      -8.088046804194e+00       1.274185441245e-07       5.398998603297e-04      -2.266278716306e-06 
   76       2.017995034230e+03       4.086766660160e-01       1.857046684242e-03      -8.592441281056e+00       1.266790015580e-07       5.319208589099e-04      -2.358449660011e-06 
   77       2.043825660127e+03       4.230253535937e-01       1.906418121044e-03      -9.107590770091e+00       1.259281208898e-07       5.241423065520e-04      -2.424100711862e-06 
   78       2.069882194922e+03       4.375420527622e-01       1.956455190541e-03      -9.633191305518e+00       1.251743135578e-07       5.165853108950e-04      -2.465565906137e-06 
   79       2.096170824545e+03       4.522130754850e-01       2.007158181017e-03      -1.016892101144e+01       1.244238701114e-07       5.092617106009e-04      -2.485887615210e-06 
   80       2.122695552370e+03       4.670239092006e-01       2.058527330587e-03      -1.071443999527e+01       1.236805349406e-07       5.021730744433e-04      -2.488869140756e-06 
   81       2.149458073009e+03       4.819592006928e-01       2.110562825333e-03      -1.126939024112e+01       1.229450520698e-07       4.953096687744e-04      -2.479128722083e-06 
   82       2.176457646105e+03       4.970027399625e-01       2.163264797440e-03      -1.183339550326e+01       1.222146812668e-07       4.886493933717e-04      -2.462154961585e-06 
   83       2.203690970125e+03       5.121374440980e-01       2.216633323325e-03      -1.240606119951e+01       1.214826837213e-07       4.821566856636e-04      -2.444363667326e-06 
   84       2.231154438959e+03       5.273468023413e-01       2.270668518312e-03      -1.298699180043e+01       1.207415606339e-07       4.757949740457e-04      -2.431674846221e-06 
   85       2.258851617999e+03       5.426195218650e-01       2.325370842763e-03      -1.357584654269e+01       1.199952867775e-07       4.695701642108e-04      -2.424702853025e-06 
   86       2.286786781801e+03       5.579456261760e-01       2.380740843511e-03      -1.417229279934e+01       1.192500766933e-07       4.634958487752e-04      -2.422482252526e-06 
   87       2.314962556591e+03       5.733150707024e-01       2.436779061599e-03      -1.477598958989e+01       1.185107027156e-07       4.575801469685e-04      -2.423832429961e-06 
   88       2.343379834096e+03       5.887177512224e-01       2.493486032031e-03      -1.538658776782e+01       1.177802357648e-07       4.518251679212e-04      -2.427343296737e-06 
   89       2.372037685395e+03       6.041435122933e-01       2.550862283535e-03      -1.600373020802e+01       1.170597701949e-07       4.462264585393e-04      -2.431360645538e-06 
   90       2.400933274748e+03       6.195821556805e-01       2.608908338316e-03      -1.662705199427e+01       1.163481323191e-07       4.407724359646e-04      -2.433971154815e-06 
   91       2.430061773446e+03       6.350234487860e-01       2.667624711814e-03      -1.725618060669e+01       1.156415722427e-07       4.354438046214e-04      -2.432987042665e-06 
   92       2.459416273645e+03       6.504571330780e-01       2.727011912461e-03      -1.789073610920e+01       1.149334386271e-07       4.302129578488e-04      -2.425930370101e-06 
   93       2.488990020862e+03       6.658723186141e-01       2.787071181959e-03      -1.853031643649e+01       1.142169205672e-07       4.250533205869e-04      -2.410630091808e-06 
   94       2.518783682676e+03       6.812555451366e-01       2.847806844002e-03      -1.917445031644e+01       1.134950135284e-07       4.199711727598e-04      -2.387204019001e-06 
   95       2.548799019025e+03       6.965924435938e-01       2.909224309996e-03      -1.982263758086e+01       1.127728811208e-07       4.149798423037e-04      -2.356492625996e-06 
   96       2.579036607357e+03       7.118683240631e-01       2.971329379802e-03      -2.047436341830e+01       1.120548939243e-07       4.100901328312e-04      -2.319493149746e-06 
   97       2.609495788302e+03       7.270681757535e-01       3.034128251657e-03      -2.112909835698e+01       1.113444895108e-07       4.053100757541e-04      -2.277368468224e-06 
   98       2.640174611333e+03       7.421766670071e-01       3.097627532097e-03      -2.178629824768e+01       1.106440245197e-07       4.006446757619e-04      -2.231456168254e-06 
   99       2.671069780439e+03       7.571781453015e-01       3.161834245878e-03      -2.244540424673e+01       1.099546186141e-07       3.960956496575e-04      -2.183277802795e-06 
  100       2.702176599793e+03       7.720566372515e-01       3.226755845897e-03      -2.310584279889e+01       1.092759901485e-07       3.916611585491e-04      -2.134548337678e-06 
  101       2.733488919418e+03       7.867958486110e-01       3.292400223116e-03      -2.376702562027e+01       1.086062833765e-07       3.873355333989e-04      -2.087185787793e-06 
  102       2.764999080854e+03       8.013791642751e-01       3.358775716481e-03      -2.442834968132e+01       1.079418870297e-07       3.831089939280e-04      -2.043321042727e-06 
  103       2.796697862831e+03       8.157896482820e-01       3.425891122847e-03      -2.508919718969e+01       1.072772440959e-07       3.789673608786e-04      -2.005307881857e-06 
  104       2.828576421036e+03       8.300107800491e-01       3.493754853913e-03      -2.574895981365e+01       1.066069114185e-07       3.748969412703e-04      -1.975223454451e-06 
  105       2.860632522883e+03       8.440287763456e-01       3.562372255966e-03      -2.640711511564e+01       1.059328294348e-07       3.709009673206e-04      -1.953231307902e-06 
  106       2.892865057601e+03       8.578305844483e-01       3.631747944884e-03      -2.706316046003e+01       1.052586244333e-07       3.669859292391e-04      -1.938906673430e-06 
  107       2.925272085313e+03       8.714031819120e-01       3.701886627332e-03      -2.771658994095e+01       1.045874453548e-07       3.631565470511e-04      -1.931711126935e-06 
