# Matter power spectrum P(k) at redshift z=0
# for k=1.02772e-05 to 1.06588 h/Mpc,
# number of wavenumbers equal to 603
#    1:k (h/Mpc)              2:P (Mpc/h)^3        
       1.027720249029e-05       5.166450342118e+01 
       2.294426191942e-05       1.126580250707e+02 
       3.565440544992e-05       1.728143037773e+02 
       4.844070198031e-05       2.326808437088e+02 
       6.133674952533e-05       2.925812883047e+02 
       7.437696496980e-05       3.527650552463e+02 
       8.759688279578e-05       4.134502054560e+02 
       1.010334666351e-04       4.748405023260e+02 
       1.147254375302e-04       5.371346131743e+02 
       1.287136228166e-04       6.005317294002e+02 
       1.430413295552e-04       6.652354817871e+02 
       1.577547463960e-04       7.314571004244e+02 
       1.729033776231e-04       7.994181301916e+02 
       1.885405128365e-04       8.693530634569e+02 
       2.047237351992e-04       9.415117864034e+02 
       2.215154703167e-04       1.016162134605e+03 
       2.389835764712e-04       1.093592420769e+03 
       2.572019749357e-04       1.174114144503e+03 
       2.762513162236e-04       1.258064639111e+03 
       2.962196741099e-04       1.345809851762e+03 
       3.172032537805e-04       1.437747092149e+03 
       3.393070931926e-04       1.534307561984e+03 
       3.626457273080e-04       1.635958716655e+03 
       3.873437730520e-04       1.743206141161e+03 
       4.135363785620e-04       1.856594546061e+03 
       4.413694638124e-04       1.976707816967e+03 
       4.709996618997e-04       2.104167377247e+03 
       5.025938529216e-04       2.239628502314e+03 
       5.363281684295e-04       2.383773945530e+03 
       5.723863383118e-04       2.537304321880e+03 
       6.109572594724e-04       2.700924687871e+03 
       6.522316935729e-04       2.875327054767e+03 
       6.963980557349e-04       3.061168677654e+03 
       7.436373412170e-04       3.259046887201e+03 
       7.941173508100e-04       3.469471354021e+03 
       8.479865075708e-04       3.692835643527e+03 
       9.053676868824e-04       3.929390261425e+03 
       9.663525795300e-04       4.179220110411e+03 
       1.030997141998e-03       4.442228581010e+03 
       1.099318635669e-03       4.718131338657e+03 
       1.171294611587e-03       5.006459105904e+03 
       1.246863979196e-03       5.306571446369e+03 
       1.325930047692e-03       5.617673923519e+03 
       1.408365199567e-03       5.938827231440e+03 
       1.494016694073e-03       6.269069701916e+03 
       1.582713029757e-03       6.607352002642e+03 
       1.674270320131e-03       6.952600509141e+03 
       1.768498233423e-03       7.303746258021e+03 
       1.865205183130e-03       7.659745487349e+03 
       1.964202598292e-03       8.019599362231e+03 
       2.065308226630e-03       8.382365587329e+03 
       2.168348516863e-03       8.747166159084e+03 
       2.273160185781e-03       9.113192642517e+03 
       2.379591104925e-03       9.479708015570e+03 
       2.487500648137e-03       9.846044829332e+03 
       2.596759632721e-03       1.021160262425e+04 
       2.707249970053e-03       1.057584863136e+04 
       2.818864121347e-03       1.093830744405e+04 
       2.931504434132e-03       1.129855048958e+04 
       3.045082416764e-03       1.165621660453e+04 
       3.159517992765e-03       1.201097833307e+04 
       3.274738764299e-03       1.236255175834e+04 
       3.390679304238e-03       1.271069098194e+04 
       3.507280488973e-03       1.305518199051e+04 
       3.624488878630e-03       1.339584000420e+04 
       3.742256147591e-03       1.373250686208e+04 
       3.860538565507e-03       1.406504623771e+04 
       3.979296527310e-03       1.439334489469e+04 
       4.098494129603e-03       1.471730307716e+04 
       4.218098790224e-03       1.503684410581e+04 
       4.338080907484e-03       1.535189723394e+04 
       4.458413555512e-03       1.566241112121e+04 
       4.579072212253e-03       1.596834519799e+04 
       4.700034516795e-03       1.626966561409e+04 
       4.821280052966e-03       1.656635542705e+04 
       4.942790156369e-03       1.685839482693e+04 
       5.064547742290e-03       1.714577572094e+04 
       5.186537152159e-03       1.742850352401e+04 
       5.308744016489e-03       1.770657804905e+04 
       5.431155132441e-03       1.798001889995e+04 
       5.553758354351e-03       1.824881513862e+04 
       5.676542495779e-03       1.851300669127e+04 
       5.799497241757e-03       1.877261216483e+04 
       5.922613070111e-03       1.902765441333e+04 
       6.045881180827e-03       1.927815519654e+04 
       6.169293432578e-03       1.952415135404e+04 
       6.292842285607e-03       1.976559557121e+04 
       6.416520750284e-03       2.000272846602e+04 
       6.540322340707e-03       2.023537622238e+04 
       6.664241032810e-03       2.046364549936e+04 
       6.788271226485e-03       2.068753061128e+04 
       6.912407711306e-03       2.090718132469e+04 
       7.036645635468e-03       2.112252094494e+04 
       7.160980477604e-03       2.133361310154e+04 
       7.285408021190e-03       2.154051771018e+04 
       7.409924331269e-03       2.174328433142e+04 
       7.534525733266e-03       2.194184766635e+04 
       7.659208793676e-03       2.213648567986e+04 
       7.783970302444e-03       2.232702664067e+04 
       7.908807256880e-03       2.251356887286e+04 
       8.033716846941e-03       2.269619225608e+04 
       8.158696441772e-03       2.287485014981e+04 
       8.283743577364e-03       2.304957261134e+04 
       8.408855945249e-03       2.322061144653e+04 
       8.534031382106e-03       2.338776788099e+04 
       8.659267860232e-03       2.355124411944e+04 
       8.784563478755e-03       2.371090153697e+04 
       8.909916455568e-03       2.386693811666e+04 
       9.035325119883e-03       2.401938283361e+04 
       9.160787905375e-03       2.416821664660e+04 
       9.286303343849e-03       2.431348573302e+04 
       9.411870059398e-03       2.445517337478e+04 
       9.537486762999e-03       2.459364852910e+04 
       9.663152247521e-03       2.472829300175e+04 
       9.788865383098e-03       2.485977868698e+04 
       9.914625112852e-03       2.498784832962e+04 
       1.004043044892e-02       2.511256039123e+04 
       1.016628046880e-02       2.523407119253e+04 
       1.029217431189e-02       2.535229069692e+04 
       1.041811117637e-02       2.546744746804e+04 
       1.054409031626e-02       2.557925708326e+04 
       1.067011103864e-02       2.568794051001e+04 
       1.079617270117e-02       2.579352075039e+04 
       1.092227470971e-02       2.589603574353e+04 
       1.104841651610e-02       2.599550288132e+04 
       1.117459761615e-02       2.609197094797e+04 
       1.130081754775e-02       2.618547476848e+04 
       1.142707588905e-02       2.627603645614e+04 
       1.155337225690e-02       2.636370471183e+04 
       1.167970630522e-02       2.644852465712e+04 
       1.180607772366e-02       2.653048927970e+04 
       1.193248623625e-02       2.660966125423e+04 
       1.205893160013e-02       2.668594738623e+04 
       1.218541360448e-02       2.675973664207e+04 
       1.231193206936e-02       2.683071932459e+04 
       1.243848684483e-02       2.689902748926e+04 
       1.256507780993e-02       2.696468620890e+04 
       1.269170487190e-02       2.702774679528e+04 
       1.281836796535e-02       2.708824580263e+04 
       1.294506705153e-02       2.714617556083e+04 
       1.307180211770e-02       2.720147354455e+04 
       1.319857317645e-02       2.725436655636e+04 
       1.332538026515e-02       2.730504053288e+04 
       1.345222344542e-02       2.735309595772e+04 
       1.357910280264e-02       2.739864459974e+04 
       1.370601844551e-02       2.744197699688e+04 
       1.383297050566e-02       2.748302148118e+04 
       1.395995913725e-02       2.752167663682e+04 
       1.408698451666e-02       2.755803426650e+04 
       1.421404684219e-02       2.759217434132e+04 
       1.434114633379e-02       2.762405635550e+04 
       1.446828323282e-02       2.765376318030e+04 
       1.459545780186e-02       2.768114946071e+04 
       1.472267032452e-02       2.770660195284e+04 
       1.484992110527e-02       2.772998348826e+04 
       1.497721046935e-02       2.775109451311e+04 
       1.510453876264e-02       2.777033598667e+04 
       1.523190635159e-02       2.778745109964e+04 
       1.535931362319e-02       2.780256095239e+04 
       1.548676098489e-02       2.781570293893e+04 
       1.561424886462e-02       2.782687895481e+04 
       1.574177771082e-02       2.783612130223e+04 
       1.586934799240e-02       2.784346239565e+04 
       1.599696019888e-02       2.784893162777e+04 
       1.612461484038e-02       2.785235221024e+04 
       1.625231244778e-02       2.785416584946e+04 
       1.638005357275e-02       2.785432146882e+04 
       1.650783878794e-02       2.785234608840e+04 
       1.663566868709e-02       2.784899388252e+04 
       1.676354388519e-02       2.784371621184e+04 
       1.689146501868e-02       2.783675680285e+04 
       1.701943274562e-02       2.782791100730e+04 
       1.714744774591e-02       2.781765111733e+04 
       1.727551072152e-02       2.780582819106e+04 
       1.740362239672e-02       2.779227154005e+04 
       1.753178351838e-02       2.777713441016e+04 
       1.765999485619e-02       2.776043855778e+04 
       1.778825720302e-02       2.774220382376e+04 
       1.791657137518e-02       2.772244004831e+04 
       1.804493821276e-02       2.770118440715e+04 
       1.817335857999e-02       2.767844816022e+04 
       1.830183336557e-02       2.765410654630e+04 
       1.843036348310e-02       2.762845286305e+04 
       1.855894987140e-02       2.760167815957e+04 
       1.868759349500e-02       2.757327305382e+04 
       1.881629534452e-02       2.754332928757e+04 
       1.894505643711e-02       2.751227663750e+04 
       1.907387781694e-02       2.748001937589e+04 
       1.920276055570e-02       2.744628461752e+04 
       1.933170575304e-02       2.741112613987e+04 
       1.946071453714e-02       2.737492039119e+04 
       1.958978806521e-02       2.733757396176e+04 
       1.971892752410e-02       2.729882431628e+04 
       1.984813413081e-02       2.725895150188e+04 
       1.997740913313e-02       2.721791156693e+04 
       2.010675381025e-02       2.717563860539e+04 
       2.023616947339e-02       2.713231121827e+04 
       2.036565746646e-02       2.708782199288e+04 
       2.049521916673e-02       2.704227300682e+04 
       2.062485598556e-02       2.699537533594e+04 
       2.075456936910e-02       2.694778438505e+04 
       2.088436079906e-02       2.689913989146e+04 
       2.101423179345e-02       2.684920212785e+04 
       2.114418390741e-02       2.679841768013e+04 
       2.127421873403e-02       2.674666324205e+04 
       2.140433790517e-02       2.669393370645e+04 
       2.153454309238e-02       2.664044961137e+04 
       2.166483600776e-02       2.658579628656e+04 
       2.179521840492e-02       2.653016880477e+04 
       2.192569207994e-02       2.647398196469e+04 
       2.205625887234e-02       2.641673380623e+04 
       2.218692066612e-02       2.635855356537e+04 
       2.231767939083e-02       2.629958776529e+04 
       2.244853702261e-02       2.623975554705e+04 
       2.257949558536e-02       2.617893645771e+04 
       2.271055715186e-02       2.611769522726e+04 
       2.284172384500e-02       2.605548356700e+04 
       2.297299783898e-02       2.599272040444e+04 
       2.310438136059e-02       2.592897377527e+04 
       2.323587669051e-02       2.586468880917e+04 
       2.336748616469e-02       2.579939934779e+04 
       2.349921217572e-02       2.573384642138e+04 
       2.363105717426e-02       2.566739870764e+04 
       2.376302367056e-02       2.560004680133e+04 
       2.389511423597e-02       2.553233759109e+04 
       2.402733150452e-02       2.546394575098e+04 
       2.415967817454e-02       2.539498007883e+04 
       2.429215701039e-02       2.532530146116e+04 
       2.442477084418e-02       2.525515589109e+04 
       2.455752257755e-02       2.518437173681e+04 
       2.469041518354e-02       2.511311339208e+04 
       2.482345170853e-02       2.504140339747e+04 
       2.495663527421e-02       2.496897626612e+04 
       2.508996907961e-02       2.489609492821e+04 
       2.522345640326e-02       2.482256313481e+04 
       2.535710060534e-02       2.474863852152e+04 
       2.549090512999e-02       2.467445222896e+04 
       2.562487350761e-02       2.459929745853e+04 
       2.575900935732e-02       2.452436829858e+04 
       2.589331638944e-02       2.444865956284e+04 
       2.602779840810e-02       2.437251746877e+04 
       2.616245931395e-02       2.429580801062e+04 
       2.629730310689e-02       2.421909700723e+04 
       2.643233388900e-02       2.414168327270e+04 
       2.656755586750e-02       2.406406441362e+04 
       2.670297335784e-02       2.398583967406e+04 
       2.683859078692e-02       2.390746620709e+04 
       2.697441269639e-02       2.382873322149e+04 
       2.711044374613e-02       2.374983537887e+04 
       2.724668871776e-02       2.367044592486e+04 
       2.738315251842e-02       2.359077937041e+04 
       2.751984018454e-02       2.351085824621e+04 
       2.765675688589e-02       2.343035426974e+04 
       2.779390792965e-02       2.334991974458e+04 
       2.793129876481e-02       2.326928610586e+04 
       2.806893498652e-02       2.318809012608e+04 
       2.820682234083e-02       2.310700730459e+04 
       2.834496672945e-02       2.302553791280e+04 
       2.848337421480e-02       2.294378107409e+04 
       2.862205102517e-02       2.286184486680e+04 
       2.876100356024e-02       2.277971885835e+04 
       2.890023839660e-02       2.269735168267e+04 
       2.903976229375e-02       2.261470487406e+04 
       2.917958220010e-02       2.253205036642e+04 
       2.931970525942e-02       2.244927085061e+04 
       2.946013881746e-02       2.236637655850e+04 
       2.960089042884e-02       2.228324754017e+04 
       2.974196786430e-02       2.219990703070e+04 
       2.988337911818e-02       2.211639616129e+04 
       3.002513241631e-02       2.203280775671e+04 
       3.016723622419e-02       2.194932077944e+04 
       3.030969925551e-02       2.186558283552e+04 
       3.045253048113e-02       2.178173655957e+04 
       3.059573913841e-02       2.169756881879e+04 
       3.073933474092e-02       2.161356422546e+04 
       3.088332708870e-02       2.152953453376e+04 
       3.102772627891e-02       2.144535675311e+04 
       3.117254271701e-02       2.136106901032e+04 
       3.131778712844e-02       2.127653158696e+04 
       3.146347057090e-02       2.119221444530e+04 
       3.160960444716e-02       2.110794743752e+04 
       3.175620051856e-02       2.102350034889e+04 
       3.190327091908e-02       2.093893157197e+04 
       3.205082817020e-02       2.085446472550e+04 
       3.219888519642e-02       2.076968228104e+04 
       3.234745534160e-02       2.068519079049e+04 
       3.249655238616e-02       2.060072885428e+04 
       3.264619056508e-02       2.051613128675e+04 
       3.279638458688e-02       2.043152307403e+04 
       3.294714965367e-02       2.034684066299e+04 
       3.309850148208e-02       2.026227792057e+04 
       3.325045632551e-02       2.017747156902e+04 
       3.340303099742e-02       2.009305458593e+04 
       3.355624289600e-02       2.000845523661e+04 
       3.371011003019e-02       1.992390080902e+04 
       3.386465104706e-02       1.983915430941e+04 
       3.401988526085e-02       1.975474920555e+04 
       3.417583268365e-02       1.967042271593e+04 
       3.433251405776e-02       1.958580806873e+04 
       3.448995089007e-02       1.950156608638e+04 
       3.464816548836e-02       1.941718098385e+04 
       3.480718099985e-02       1.933278978971e+04 
       3.496702145205e-02       1.924850284445e+04 
       3.512771179608e-02       1.916404821140e+04 
       3.528927795274e-02       1.907991984042e+04 
       3.545174686143e-02       1.899573453543e+04 
       3.561514653215e-02       1.891167520716e+04 
       3.577950610091e-02       1.882763853384e+04 
       3.594485588867e-02       1.874354517191e+04 
       3.611122746424e-02       1.865950008484e+04 
       3.627865371133e-02       1.857569191582e+04 
       3.644716890011e-02       1.849177809730e+04 
       3.661680876378e-02       1.840784501602e+04 
       3.678761058033e-02       1.832403992010e+04 
       3.695961326016e-02       1.824040127309e+04 
       3.713285743988e-02       1.815662020850e+04 
       3.730738558292e-02       1.807283469673e+04 
       3.748324208756e-02       1.798941600407e+04 
       3.766047340292e-02       1.790580149606e+04 
       3.783912815379e-02       1.782233407485e+04 
       3.801925727498e-02       1.773871116386e+04 
       3.820091415607e-02       1.765524518767e+04 
       3.838415479770e-02       1.757195073360e+04 
       3.856903798025e-02       1.748840440633e+04 
       3.875562544632e-02       1.740507646621e+04 
       3.894398209828e-02       1.732175416140e+04 
       3.913417621237e-02       1.723848701864e+04 
       3.932627967107e-02       1.715510862416e+04 
       3.952036821566e-02       1.707172288348e+04 
       3.971652172096e-02       1.698848502269e+04 
       3.991482449475e-02       1.690522025397e+04 
       4.011536560450e-02       1.682193459558e+04 
       4.031823923431e-02       1.673858972255e+04 
       4.052354507566e-02       1.665518122124e+04 
       4.073138875560e-02       1.657171130921e+04 
       4.094188230692e-02       1.648820594654e+04 
       4.115514468511e-02       1.640477841708e+04 
       4.137130233782e-02       1.632126060017e+04 
       4.159048983331e-02       1.623746324229e+04 
       4.181285055513e-02       1.615377432988e+04 
       4.203853747158e-02       1.607012362767e+04 
       4.226771398967e-02       1.598619000561e+04 
       4.250055490468e-02       1.590209416091e+04 
       4.273724745843e-02       1.581784714077e+04 
       4.297799252107e-02       1.573352375963e+04 
       4.322300591405e-02       1.564914799784e+04 
       4.347251989435e-02       1.556435714042e+04 
       4.372678482394e-02       1.547952238879e+04 
       4.398607105227e-02       1.539447666024e+04 
       4.425067104452e-02       1.530899124012e+04 
       4.452090179444e-02       1.522344203994e+04 
       4.479710756757e-02       1.513745855656e+04 
       4.507966302932e-02       1.505116764663e+04 
       4.536897682316e-02       1.496460210446e+04 
       4.566549567652e-02       1.487755714968e+04 
       4.596970912843e-02       1.479028011753e+04 
       4.628215499171e-02       1.470234472264e+04 
       4.660342568704e-02       1.461393369655e+04 
       4.693417561560e-02       1.452485058045e+04 
       4.727512977445e-02       1.443532934714e+04 
       4.762709386502e-02       1.434501231900e+04 
       4.799096620370e-02       1.425416256872e+04 
       4.836775181693e-02       1.416242644272e+04 
       4.875857919682e-02       1.406970690056e+04 
       4.916472031134e-02       1.397615644314e+04 
       4.958761461424e-02       1.388137408299e+04 
       5.002889799167e-02       1.378547636576e+04 
       5.049043782782e-02       1.368820343965e+04 
       5.097437568275e-02       1.358950389920e+04 
       5.148317946977e-02       1.348911970370e+04 
       5.201970751184e-02       1.338680590538e+04 
       5.258728746017e-02       1.328219821118e+04 
       5.318981377267e-02       1.317528450195e+04 
       5.383186824153e-02       1.306537043552e+04 
       5.451886881882e-02       1.295199261730e+04 
       5.525725245050e-02       1.283480374741e+04 
       5.605469721128e-02       1.271258817502e+04 
       5.692038654339e-02       1.258472099309e+04 
       5.786531153104e-02       1.244957053168e+04 
       5.890259164847e-02       1.230527439146e+04 
       6.004776314048e-02       1.214978196487e+04 
