# dimensionless total lensed [l(l+1)/2pi] C_l's
# for l=2 to 2500, i.e. number of multipoles equal to 2499
#
# -> if you prefer output in CAMB/HealPix/LensPix units/order, set 'format' to 'camb' in input file
# -> if you don't want to see such a header, set 'headers' to 'no' in input file
# -> for CMB lensing (phi), these are C_l^phi-phi for the lensing potential.
#    Remember the conversion factors:
#    C_l^dd (deflection) = l(l+1) C_l^phi-phi
#    C_l^gg (shear/convergence) = 1/4 (l(l+1))^2 C_l^phi-phi
#
# 1:l     2:TT                     3:EE                     4:TE                     5:BB                     6:phiphi                 7:TPhi                   8:Ephi               
    2       1.505965164715e-10       7.152667379882e-15       4.598847865356e-13       2.433221661062e-19       8.667213046368e-09       5.110798260871e-10      -2.454496629420e-12 
    3       1.415322493987e-10       1.175065107681e-14       5.831578208160e-13       4.868556236052e-19       5.340292304022e-09       3.627207167604e-10      -2.136838405380e-12 
    4       1.324727117068e-10       1.327154295259e-14       6.029938531745e-13       8.118884080336e-19       3.725085360242e-09       2.742274032679e-10      -1.678039938151e-12 
    5       1.253379654848e-10       1.183161590901e-14       5.604817293462e-13       1.218682565633e-18       2.786924949277e-09       2.161972876951e-10      -1.218571881897e-12 
    6       1.201448336541e-10       8.767801910243e-15       4.870036673451e-13       1.707549368910e-18       2.180671187566e-09       1.755965520208e-10      -8.068074923197e-13 
    7       1.165655305660e-10       5.576608247175e-15       4.044393448181e-13       2.278839410307e-18       1.761375984978e-09       1.458573928175e-10      -4.662401070573e-13 
    8       1.142124315624e-10       3.200681871284e-15       3.258675938221e-13       2.932931614754e-18       1.456577709467e-09       1.232707174003e-10      -2.061280324725e-13 
    9       1.128087875662e-10       1.875049714185e-15       2.586822001090e-13       3.670221600462e-18       1.226714034740e-09       1.056090806668e-10      -2.598778125234e-14 
   10       1.121199351867e-10       1.345267431761e-15       2.065684413674e-13       4.491109841119e-18       1.048631366892e-09       9.153148690678e-11       8.187188137165e-14 
   11       1.119882572172e-10       1.203535122803e-15       1.705311218915e-13       5.395990088122e-18       8.861082928575e-10       8.044727299726e-11       1.293844106604e-13 
   12       1.123177260774e-10       1.140044997548e-15       1.494653499541e-13       6.385238498400e-18       7.746942867728e-10       7.101947213515e-11       1.330239755385e-13 
   13       1.129596095850e-10       1.030462840089e-15       1.408531124788e-13       7.459203882303e-18       6.831742337716e-10       6.329201108769e-11       1.077270354838e-13 
   14       1.138226292345e-10       8.914411377500e-16       1.415254896426e-13       8.618199438151e-18       6.069786747855e-10       5.660841171915e-11       6.698264883633e-14 
   15       1.149133839093e-10       7.863901513165e-16       1.482565243482e-13       9.862496277473e-18       5.428063866454e-10       5.101918479291e-11       2.280391131181e-14 
   16       1.162137173708e-10       7.532677783995e-16       1.580729771099e-13       1.119231897003e-17       4.882166635515e-10       4.629624252584e-11      -1.643032351775e-14 
   17       1.176038779846e-10       7.838274902920e-16       1.686487192114e-13       1.260784325373e-17       4.413648314456e-10       4.222621833293e-11      -4.555121844165e-14 
   18       1.191155957993e-10       8.404209447818e-16       1.784407422950e-13       1.410919490848e-17       4.006815142892e-10       3.859153936661e-11      -6.247901242939e-14 
   19       1.207579158669e-10       8.999697282377e-16       1.868555137349e-13       1.569645715081e-17       3.655253574730e-10       3.537178750724e-11      -6.758223151866e-14 
   20       1.224598981548e-10       9.467841022016e-16       1.936117235249e-13       1.736966325642e-17       3.345493483818e-10       3.253684861673e-11      -6.299494842610e-14 
   21       1.242349396443e-10       9.946666374596e-16       1.989902326776e-13       1.912881806533e-17       3.072707254610e-10       3.004548789668e-11      -5.160939522687e-14 
   22       1.260892557437e-10       1.068706841826e-15       2.035720383834e-13       2.097388921330e-17       2.830397362498e-10       2.781005141523e-11      -3.725384115802e-14 
   23       1.280083857221e-10       1.181299950082e-15       2.079364803368e-13       2.290483284127e-17       2.615256222271e-10       2.578914386376e-11      -2.287678264822e-14 
   24       1.299543671175e-10       1.338742648231e-15       2.126857109778e-13       2.492158477856e-17       2.422336540042e-10       2.393814377197e-11      -1.125273545989e-14 
   25       1.319470308204e-10       1.535871742326e-15       2.181319607478e-13       2.702409066797e-17       2.249387012519e-10       2.226953454417e-11      -3.619359548135e-15 
   26       1.340045563543e-10       1.763162816922e-15       2.244255714584e-13       2.921229519613e-17       2.093294759548e-10       2.079298611509e-11      -4.868585443272e-16 
   27       1.361091662406e-10       2.017886542892e-15       2.313920969416e-13       3.148616855014e-17       1.952198714351e-10       1.947653772323e-11      -1.292837545257e-15 
   28       1.382247825121e-10       2.299005970997e-15       2.386771606751e-13       3.384569949960e-17       1.823677232036e-10       1.826772523190e-11      -4.917167738775e-15 
   29       1.403603178230e-10       2.605916348388e-15       2.458753716872e-13       3.629092623127e-17       1.707080430740e-10       1.715876526381e-11      -1.029123493430e-14 
   30       1.425289634939e-10       2.937767387339e-15       2.524666533006e-13       3.882191870054e-17       1.601162916255e-10       1.614617791614e-11      -1.608384889995e-14 
   31       1.447336097670e-10       3.293339311151e-15       2.578779841562e-13       4.143877850092e-17       1.503772526407e-10       1.521767507984e-11      -2.084204769803e-14 
   32       1.469771550579e-10       3.671645988378e-15       2.618069647765e-13       4.414166016264e-17       1.414410895434e-10       1.436667122286e-11      -2.398157298339e-14 
   33       1.492533551437e-10       4.071511047905e-15       2.640136830813e-13       4.693076480050e-17       1.332450428868e-10       1.358139834719e-11      -2.515667360111e-14 
   34       1.515498111212e-10       4.492431922027e-15       2.643004901662e-13       4.980633463076e-17       1.256749410026e-10       1.284579826225e-11      -2.415710815352e-14 
   35       1.538728919478e-10       4.938200703972e-15       2.627359321131e-13       5.276863818938e-17       1.186923324321e-10       1.215899938411e-11      -2.143677669894e-14 
   36       1.562298853634e-10       5.414641758971e-15       2.595153074030e-13       5.581798652542e-17       1.122414849503e-10       1.152174113182e-11      -1.779001312725e-14 
   37       1.586226848534e-10       5.927482270002e-15       2.548641650804e-13       5.895472029962e-17       1.062387795895e-10       1.093194724867e-11      -1.407738348732e-14 
   38       1.610513410836e-10       6.478043250231e-15       2.488916643606e-13       6.217913928943e-17       1.006688743806e-10       1.038849190249e-11      -1.070929661015e-14 
   39       1.635104549781e-10       7.066141669061e-15       2.416935402423e-13       6.549155399751e-17       9.551424341174e-11       9.888113376780e-12      -8.003819519650e-15 
   40       1.659873409684e-10       7.691209360576e-15       2.333933446983e-13       6.889230706558e-17       9.072592007277e-11       9.424022276302e-12      -6.328313007063e-15 
   41       1.684678483434e-10       8.352550836722e-15       2.240914039712e-13       7.238174059161e-17       8.624059017389e-11       8.988087390499e-12      -5.974206957225e-15 
   42       1.709577673064e-10       9.050282938841e-15       2.136880396952e-13       7.596008053934e-17       8.204515881991e-11       8.578969265321e-12      -6.726093367322e-15 
   43       1.734672270309e-10       9.784655371599e-15       2.020053676082e-13       7.962751802318e-17       7.812858441670e-11       8.196130135037e-12      -8.156703445860e-15 
   44       1.760045445019e-10       1.055578471324e-14       1.888328480880e-13       8.338424031686e-17       7.446250142709e-11       7.837450627678e-12      -9.736514682538e-15 
   45       1.785755140257e-10       1.136376007838e-14       1.739613999503e-13       8.723039931059e-17       7.101137362379e-11       7.500043180737e-12      -1.094637914677e-14 
   46       1.811815988819e-10       1.220901549986e-14       1.573028286319e-13       9.116600664282e-17       6.776982463148e-11       7.183285513144e-12      -1.167017433423e-14 
   47       1.838207829617e-10       1.309205608023e-14       1.388025472070e-13       9.519100649123e-17       6.473412095140e-11       6.886475150372e-12      -1.190899085045e-14 
   48       1.864877253240e-10       1.401335349554e-14       1.184064674893e-13       9.930530180596e-17       6.189091111555e-11       6.607893566902e-12      -1.167311948099e-14 
   49       1.891734887582e-10       1.497334499237e-14       9.606099507466e-14       1.035087520909e-16       5.921651025322e-11       6.344731761523e-12      -1.098269344222e-14 
   50       1.918690538441e-10       1.597238644676e-14       7.173400792906e-14       1.078011686781e-16       5.668404185224e-11       6.093947830518e-12      -9.886988466594e-15 
   51       1.945776153647e-10       1.701059884676e-14       4.548451679925e-14       1.121823041857e-16       5.428880821129e-11       5.855286775937e-12      -8.527009063814e-15 
   52       1.973051544199e-10       1.808797840560e-14       1.741190476426e-14       1.166518563632e-16       5.202856983965e-11       5.628951742490e-12      -7.091000762675e-15 
   53       2.000568535654e-10       1.920443576793e-14      -1.236244449506e-14       1.212094680675e-16       4.989595266760e-11       5.414713820574e-12      -5.798761269092e-15 
   54       2.028370035173e-10       2.035979284507e-14      -4.369416419230e-14       1.258547249257e-16       4.787810236343e-11       5.211881480302e-12      -4.903160732637e-15 
   55       2.056488011396e-10       2.155384533313e-14      -7.645543995599e-14       1.305872008159e-16       4.596061079151e-11       5.019551010706e-12      -4.621559551456e-15 
   56       2.084938983761e-10       2.278657570474e-14      -1.106673684603e-13       1.354066128917e-16       4.414122955739e-11       4.837500716271e-12      -4.906627810553e-15 
   57       2.113725778483e-10       2.405798758566e-14      -1.463987585872e-13       1.403127009763e-16       4.241895771073e-11       4.665465319307e-12      -5.621255338149e-15 
   58       2.142837563436e-10       2.536804411510e-14      -1.837290773571e-13       1.453051826559e-16       4.078989274693e-11       4.502855226377e-12      -6.602481371494e-15 
   59       2.172248872841e-10       2.671666734004e-14      -2.227490460489e-13       1.503837528066e-16       3.924705137121e-11       4.348736910571e-12      -7.660283558668e-15 
   60       2.201918631941e-10       2.810373760946e-14      -2.635612363212e-13       1.555480831200e-16       3.778019026256e-11       4.201813293784e-12      -8.576366960381e-15 
   61       2.231806397571e-10       2.952904020270e-14      -3.062572306584e-13       1.607978903280e-16       3.637865253676e-11       4.060776016621e-12      -9.156290275642e-15 
   62       2.261927546119e-10       3.099209258568e-14      -3.508417644058e-13       1.661331598405e-16       3.504105923311e-11       3.925499027847e-12      -9.402256606681e-15 
   63       2.292308798749e-10       3.249227712911e-14      -3.972925369368e-13       1.715539716933e-16       3.376748502849e-11       3.796079316171e-12      -9.377135006676e-15 
   64       2.322971678047e-10       3.402888821821e-14      -4.455820002653e-13       1.770604379525e-16       3.255654291187e-11       3.672481000707e-12      -9.155017512836e-15 
   65       2.353932078941e-10       3.560112997276e-14      -4.956772115703e-13       1.826527044199e-16       3.140530095148e-11       3.554527512956e-12      -8.821700497990e-15 
   66       2.385199839638e-10       3.720811396711e-14      -5.475396857199e-13       1.883309523399e-16       3.030919906194e-11       3.441893778801e-12      -8.475166022158e-15 
   67       2.416778312546e-10       3.884885695030e-14      -6.011252477961e-13       1.940954001048e-16       2.926196577141e-11       3.334098400501e-12      -8.226063184131e-15 
   68       2.448668171491e-10       4.052235899732e-14      -6.563900964108e-13       1.999462959870e-16       2.825729387157e-11       3.230645264571e-12      -8.171551899754e-15 
   69       2.480880688265e-10       4.222786144790e-14      -7.133107499687e-13       2.058838908110e-16       2.729444768787e-11       3.131499160508e-12      -8.309603869323e-15 
   70       2.513426387809e-10       4.396463737728e-14      -7.718678956807e-13       2.119084627834e-16       2.637364768712e-11       3.036692933129e-12      -8.608121665971e-15 
   71       2.546310734985e-10       4.573191557047e-14      -8.320405475383e-13       2.180203274270e-16       2.549437456047e-11       2.946182658979e-12      -9.029843539997e-15 
   72       2.579533813842e-10       4.752888029938e-14      -8.938060576819e-13       2.242198390576e-16       2.465533097486e-11       2.859843649957e-12      -9.532143502587e-15 
   73       2.613090006891e-10       4.935467109994e-14      -9.571401277692e-13       2.305073922607e-16       2.385440332430e-11       2.777466456937e-12      -1.006683140953e-14 
   74       2.646967674379e-10       5.120838254921e-14      -1.022016820343e-12       2.368834233676e-16       2.308862348128e-11       2.698752873396e-12      -1.057995304494e-14 
   75       2.681148833563e-10       5.308906404252e-14      -1.088408570198e-12       2.433484119323e-16       2.235413054816e-11       2.623311939038e-12      -1.101159020497e-14 
   76       2.715616196402e-10       5.499562459272e-14      -1.156284941919e-12       2.499027979585e-16       2.164712945284e-11       2.550756552657e-12      -1.130963530310e-14 
   77       2.750376473241e-10       5.692652767832e-14      -1.225608615777e-12       2.565467128911e-16       2.096705309521e-11       2.481022484373e-12      -1.147445702309e-14 
   78       2.785440755715e-10       5.888004008601e-14      -1.296338687092e-12       2.632802020247e-16       2.031391002236e-11       2.414100546485e-12      -1.152205429745e-14 
   79       2.820817368231e-10       6.085431981654e-14      -1.368431841020e-12       2.701033041536e-16       1.968732122015e-11       2.349939242996e-12      -1.147088960167e-14 
   80       2.856511698130e-10       6.284741391429e-14      -1.441842338212e-12       2.770160513210e-16       1.908650230565e-11       2.288442836320e-12      -1.134197559679e-14 
   81       2.892526025852e-10       6.485725629678e-14      -1.516522000464e-12       2.840184685681e-16       1.851024571963e-11       2.229469413972e-12      -1.115896177206e-14 
   82       2.928859355098e-10       6.688166558416e-14      -1.592420196384e-12       2.911105736828e-16       1.795690291901e-11       2.172828955273e-12      -1.094822108749e-14 
   83       2.965507242995e-10       6.891834292881e-14      -1.669483827040e-12       2.982923769485e-16       1.742436656932e-11       2.118281398048e-12      -1.073893661649e-14 
   84       3.002464836801e-10       7.096506647776e-14      -1.747659666034e-12       3.055638938845e-16       1.691058272184e-11       2.065593663980e-12      -1.055675748843e-14 
   85       3.039736934461e-10       7.302031655510e-14      -1.826901856837e-12       3.129251864417e-16       1.641522390938e-11       2.014725831511e-12      -1.040336853586e-14 
   86       3.077329288250e-10       7.508275062400e-14      -1.907165637835e-12       3.203763282076e-16       1.593826205471e-11       1.965672425353e-12      -1.027367683504e-14 
   87       3.115245432277e-10       7.715101698629e-14      -1.988405123280e-12       3.279173919899e-16       1.547945437769e-11       1.918405273442e-12      -1.016192014969e-14 
   88       3.153486566544e-10       7.922375591669e-14      -2.070573328521e-12       3.355484497846e-16       1.503833449500e-11       1.872872564537e-12      -1.006164549463e-14 
   89       3.192051440995e-10       8.129960079716e-14      -2.153622195227e-12       3.432695727423e-16       1.461420351996e-11       1.828997905823e-12      -9.965687699349e-15 
   90       3.230936239581e-10       8.337717925109e-14      -2.237502616616e-12       3.510808311362e-16       1.420612116229e-11       1.786679380507e-12      -9.866147971662e-15 
   91       3.270134464304e-10       8.545511427767e-14      -2.322164462682e-12       3.589822943292e-16       1.381289682785e-11       1.745788605427e-12      -9.754372461284e-15 
   92       3.309636819278e-10       8.753202538610e-14      -2.407556605423e-12       3.669740307408e-16       1.343308071846e-11       1.706169788643e-12      -9.620930823456e-15 
   93       3.349434214994e-10       8.960644711668e-14      -2.493624938904e-12       3.750562074670e-16       1.306530777479e-11       1.667677850803e-12      -9.458000245797e-15 
   94       3.389527549814e-10       9.167656812239e-14      -2.580306044029e-12       3.832294063473e-16       1.270940800989e-11       1.630301394661e-12      -9.266974244789e-15 
   95       3.429919192085e-10       9.374045475969e-14      -2.667532613158e-12       3.914943555948e-16       1.236544749132e-11       1.594056573837e-12      -9.051963923873e-15 
   96       3.470609918883e-10       9.579613020552e-14      -2.755235368108e-12       3.998518356967e-16       1.203338637503e-11       1.558949276228e-12      -8.817505903030e-15 
   97       3.511598842889e-10       9.784157445752e-14      -2.843343057853e-12       4.083026807500e-16       1.171307484860e-11       1.524974717837e-12      -8.568573901793e-15 
   98       3.552883339281e-10       9.987472433428e-14      -2.931782456226e-12       4.168477797963e-16       1.140424907439e-11       1.492117036588e-12      -8.310590322256e-15 
   99       3.594458972616e-10       1.018934734756e-13      -3.020478359625e-12       4.254880781569e-16       1.110652713274e-11       1.460348886154e-12      -8.049437832080e-15 
  100       3.636319423719e-10       1.038956723429e-13      -3.109353584715e-12       4.342245787686e-16       1.081940496520e-11       1.429631029777e-12      -7.791470947508e-15 
  101       3.678456416564e-10       1.058791282193e-13      -3.198328966125e-12       4.430583435179e-16       1.054225231766e-11       1.399911934091e-12      -7.543527616373e-15 
  102       3.720859645163e-10       1.078416052097e-13      -3.287323354158e-12       4.519904945772e-16       1.027430868358e-11       1.371127362946e-12      -7.312940801106e-15 
  103       3.763516700449e-10       1.097808242416e-13      -3.376253612491e-12       4.610222157392e-16       1.001467924719e-11       1.343199971228e-12      -7.107550061747e-15 
  104       3.806415680631e-10       1.116945621400e-13      -3.465037877913e-12       4.701546389666e-16       9.762537675691e-12       1.316057081545e-12      -6.933923776640e-15 
  105       3.849553581315e-10       1.135809640953e-13      -3.553605845996e-12       4.793884837090e-16       9.517774432597e-12       1.289687624009e-12      -6.791727351983e-15 
  106       3.892928907740e-10       1.154382736024e-13      -3.641889877055e-12       4.887243711253e-16       9.280428886732e-12       1.264092166764e-12      -6.678612291897e-15 
  107       3.936539049410e-10       1.172647382306e-13      -3.729821891331e-12       4.981629345915e-16       9.050488521532e-12       1.239265216110e-12      -6.591929641972e-15 
