# Matter power spectrum P(k) at redshift z=0
# for k=0.000782021 to 164.875 h/Mpc,
# number of wavenumbers equal to 514
#    1:k (h/Mpc)              2:P (Mpc/h)^3        
       7.820212575203e-04       1.738551528881e-04 
       6.176922517900e-03       1.269118234225e-03 
       1.871775700700e-02       3.683532539662e-03 
       3.155038835146e-02       6.075987665374e-03 
       4.440704496667e-02       8.420372299929e-03 
       5.727039923456e-02       1.072201708857e-02 
       7.013666051903e-02       1.298436292220e-02 
       8.300453999561e-02       1.520948814715e-02 
       9.587348438196e-02       1.739866412626e-02 
       1.087432193780e-01       1.955272093626e-02 
       1.216135953648e-01       2.167227655847e-02 
       1.344845252771e-01       2.375782946274e-02 
       1.473559562684e-01       2.580952546046e-02 
       1.602278555206e-01       2.782797235252e-02 
       1.731002025967e-01       2.981352199786e-02 
       1.859729850714e-01       3.176650750621e-02 
       1.988461959101e-01       3.368724378060e-02 
       2.117198318313e-01       3.557605850490e-02 
       2.245938922497e-01       3.743326506380e-02 
       2.374683785715e-01       3.925919523090e-02 
       2.503432937145e-01       4.105418394145e-02 
       2.632186417726e-01       4.281857188718e-02 
       2.760944277773e-01       4.455270201054e-02 
       2.889706575257e-01       4.625693544872e-02 
       3.018473374540e-01       4.793163133098e-02 
       3.147244745436e-01       4.957715178054e-02 
       3.276020762508e-01       5.119386788849e-02 
       3.404801504537e-01       5.278214228912e-02 
       3.533587054115e-01       5.434252346013e-02 
       3.662377497337e-01       5.587512374624e-02 
       3.791172923565e-01       5.738025338609e-02 
       3.919973425247e-01       5.885841454777e-02 
       4.048779097782e-01       6.030995291706e-02 
       4.177590039412e-01       6.173520949573e-02 
       4.306406351154e-01       6.313457415891e-02 
       4.435228136739e-01       6.450832677272e-02 
       4.564055502580e-01       6.585687055760e-02 
       4.692888557749e-01       6.718050982850e-02 
       4.821727413967e-01       6.847958076522e-02 
       4.950572185603e-01       6.975438182873e-02 
       5.079422989682e-01       7.100529205182e-02 
       5.208279945900e-01       7.223264115669e-02 
       5.337143176648e-01       7.343669696799e-02 
       5.466012807032e-01       7.461781496140e-02 
       5.594888964911e-01       7.577631088183e-02 
       5.723771780926e-01       7.691246808532e-02 
       5.852661388540e-01       7.802660839301e-02 
       5.981557924082e-01       7.911904153214e-02 
       6.110461526789e-01       8.019005742624e-02 
       6.239372338854e-01       8.123994424184e-02 
       6.368290505474e-01       8.226895782135e-02 
       6.497216174905e-01       8.327738658205e-02 
       6.626149498516e-01       8.426553807255e-02 
       6.755090630843e-01       8.523366387161e-02 
       6.884039729651e-01       8.618202635730e-02 
       7.012996955991e-01       8.711085973446e-02 
       7.141962474264e-01       8.802047208496e-02 
       7.270936452287e-01       8.891104876008e-02 
       7.399919061358e-01       8.978288492932e-02 
       7.528910476321e-01       9.063626861851e-02 
       7.657910875642e-01       9.147137333610e-02 
       7.786920441477e-01       9.228845818371e-02 
       7.915939359744e-01       9.308778480338e-02 
       8.044967820203e-01       9.386951540550e-02 
       8.174006016530e-01       9.463392983535e-02 
       8.303054146398e-01       9.538126349323e-02 
       8.432112411556e-01       9.611175522597e-02 
       8.561181017913e-01       9.682558854705e-02 
       8.690260175625e-01       9.752294012868e-02 
       8.819350099178e-01       9.820406997802e-02 
       8.948451007479e-01       9.886917419817e-02 
       9.077563123947e-01       9.951837686726e-02 
       9.206686676607e-01       1.001520705128e-01 
       9.335821898181e-01       1.007702771049e-01 
       9.464969026189e-01       1.013732755310e-01 
       9.594128303048e-01       1.019611767809e-01 
       9.723299976172e-01       1.025343109357e-01 
       9.852484298076e-01       1.030927115528e-01 
       9.981681526483e-01       1.036366427969e-01 
       1.011089192443e+00       1.041662484246e-01 
       1.024011576039e+00       1.046817710239e-01 
       1.036935330836e+00       1.051833218759e-01 
       1.049860484801e+00       1.056711343269e-01 
       1.062787066477e+00       1.061452919489e-01 
       1.075715104998e+00       1.066060811502e-01 
       1.088644630099e+00       1.070535561016e-01 
       1.101575672130e+00       1.074879893847e-01 
       1.114508262067e+00       1.079094597662e-01 
       1.127442431529e+00       1.083181388644e-01 
       1.140378212788e+00       1.087142268941e-01 
       1.153315638784e+00       1.090979014937e-01 
       1.166254743139e+00       1.094692092002e-01 
       1.179195560173e+00       1.098283491193e-01 
       1.192138124914e+00       1.101755402327e-01 
       1.205082473120e+00       1.105108268411e-01 
       1.218028641289e+00       1.108344161588e-01 
       1.230976666676e+00       1.111465127464e-01 
       1.243926587311e+00       1.114471101518e-01 
       1.256878442013e+00       1.117364445761e-01 
       1.269832270408e+00       1.120146974276e-01 
       1.282788112946e+00       1.122819018887e-01 
       1.295746010920e+00       1.125383220942e-01 
       1.308706006482e+00       1.127839692675e-01 
       1.321668142660e+00       1.130190589049e-01 
       1.334632463383e+00       1.132437101444e-01 
       1.347599013493e+00       1.134580437161e-01 
       1.360567838768e+00       1.136622021544e-01 
       1.373538985944e+00       1.138562802736e-01 
       1.386512502732e+00       1.140404179728e-01 
       1.399488437841e+00       1.142147697847e-01 
       1.412466841000e+00       1.143793982461e-01 
       1.425447762977e+00       1.145345328536e-01 
       1.438431255605e+00       1.146802134133e-01 
       1.451417371805e+00       1.148165411825e-01 
       1.464406165607e+00       1.149437164851e-01 
       1.477397692176e+00       1.150617627365e-01 
       1.490392007836e+00       1.151709307079e-01 
       1.503389170096e+00       1.152712435037e-01 
       1.516389237675e+00       1.153628121697e-01 
       1.529392270528e+00       1.154458449374e-01 
       1.542398329876e+00       1.155203652764e-01 
       1.555407478230e+00       1.155865754637e-01 
       1.568419779422e+00       1.156445056939e-01 
       1.581435298632e+00       1.156943129025e-01 
       1.594454102421e+00       1.157360747754e-01 
       1.607476258756e+00       1.157698737245e-01 
       1.620501837048e+00       1.157958860922e-01 
       1.633530908178e+00       1.158141264149e-01 
       1.646563544534e+00       1.158247629324e-01 
       1.659599820040e+00       1.158279140127e-01 
       1.672639810194e+00       1.158236215052e-01 
       1.685683592104e+00       1.158121578047e-01 
       1.698731244518e+00       1.157933936658e-01 
       1.711782847869e+00       1.157675816064e-01 
       1.724838484304e+00       1.157347512602e-01 
       1.737898237731e+00       1.156950930588e-01 
       1.750962193851e+00       1.156485611526e-01 
       1.764030440207e+00       1.155954819740e-01 
       1.777103066216e+00       1.155357073698e-01 
       1.790180163219e+00       1.154694210973e-01 
       1.803261824522e+00       1.153968105689e-01 
       1.816348145441e+00       1.153178490378e-01 
       1.829439223347e+00       1.152326696312e-01 
       1.842535157715e+00       1.151414491277e-01 
       1.855636050169e+00       1.150441116845e-01 
       1.868742004537e+00       1.149409809996e-01 
       1.881853126894e+00       1.148319155448e-01 
       1.894969525622e+00       1.147171485681e-01 
       1.908091311458e+00       1.145967908888e-01 
       1.921218597550e+00       1.144708085967e-01 
       1.934351499514e+00       1.143392802543e-01 
       1.947490135490e+00       1.142025065426e-01 
       1.960634626205e+00       1.140603607510e-01 
       1.973785095028e+00       1.139130232136e-01 
       1.986941668035e+00       1.137605479471e-01 
       2.000104474074e+00       1.136029540784e-01 
       2.013273644830e+00       1.134405908460e-01 
       2.026449314891e+00       1.132733077788e-01 
       2.039631621817e+00       1.131010796076e-01 
       2.052820706213e+00       1.129243388197e-01 
       2.066016711800e+00       1.127428011130e-01 
       2.079219785492e+00       1.125569928992e-01 
       2.092430077468e+00       1.123664448238e-01 
       2.105647741259e+00       1.121716392787e-01 
       2.118872933821e+00       1.119725064369e-01 
       2.132105815624e+00       1.117691273242e-01 
       2.145346550735e+00       1.115616315233e-01 
       2.158595306906e+00       1.113501267767e-01 
       2.171852255667e+00       1.111344625040e-01 
       2.185117572416e+00       1.109150647149e-01 
       2.198391436518e+00       1.106916235092e-01 
       2.211674031400e+00       1.104647518656e-01 
       2.224965544655e+00       1.102337758401e-01 
       2.238266168144e+00       1.099994337047e-01 
       2.251576098107e+00       1.097614464652e-01 
       2.264895535268e+00       1.095201423079e-01 
       2.278224684952e+00       1.092753295568e-01 
       2.291563757203e+00       1.090271338081e-01 
       2.304912966901e+00       1.087756463987e-01 
       2.318272533886e+00       1.085213612016e-01 
       2.331642683090e+00       1.082632918712e-01 
       2.345023644663e+00       1.080024707922e-01 
       2.358415654113e+00       1.077388127941e-01 
       2.371818952440e+00       1.074720298103e-01 
       2.385233786287e+00       1.072023914459e-01 
       2.398660408082e+00       1.069300335857e-01 
       2.412099076193e+00       1.066547890909e-01 
       2.425550055085e+00       1.063773124565e-01 
       2.439013615485e+00       1.060965187466e-01 
       2.452490034545e+00       1.058136376641e-01 
       2.465979596019e+00       1.055282270668e-01 
       2.479482590438e+00       1.052403970248e-01 
       2.492999315298e+00       1.049498859530e-01 
       2.506530075245e+00       1.046574438150e-01 
       2.520075182275e+00       1.043626898735e-01 
       2.533634955936e+00       1.040656058368e-01 
       2.547209723536e+00       1.037666492276e-01 
       2.560799820358e+00       1.034654224555e-01 
       2.574405589887e+00       1.031622996980e-01 
       2.588027384040e+00       1.028571895869e-01 
       2.601665563401e+00       1.025499081653e-01 
       2.615320497470e+00       1.022409706015e-01 
       2.628992564922e+00       1.019302701014e-01 
       2.642682153863e+00       1.016180948099e-01 
       2.656389662111e+00       1.013036449310e-01 
       2.670115497474e+00       1.009877773669e-01 
       2.683860078044e+00       1.006702980746e-01 
       2.697623832500e+00       1.003512895116e-01 
       2.711407200421e+00       1.000310090549e-01 
       2.725210632613e+00       9.970902233706e-02 
       2.739034591444e+00       9.938551924637e-02 
       2.752879551196e+00       9.906067126634e-02 
       2.766745998422e+00       9.873487439023e-02 
       2.780634432328e+00       9.840768331034e-02 
       2.794545365156e+00       9.807917834084e-02 
       2.808479322592e+00       9.774946891372e-02 
       2.822436844186e+00       9.741870620364e-02 
       2.836418483785e+00       9.708686066119e-02 
       2.850424809987e+00       9.675417589252e-02 
       2.864456406607e+00       9.641997837421e-02 
       2.878513873174e+00       9.608503788845e-02 
       2.892597825427e+00       9.574910904557e-02 
       2.906708895851e+00       9.541245502644e-02 
       2.920847734224e+00       9.507503991079e-02 
       2.935015008183e+00       9.473659296002e-02 
       2.949211403826e+00       9.439744635520e-02 
       2.963437626324e+00       9.405768844428e-02 
       2.977694400567e+00       9.371714268742e-02 
       2.991982471839e+00       9.337590136838e-02 
       3.006302606509e+00       9.303399056482e-02 
       3.020655592768e+00       9.269146615025e-02 
       3.035042241386e+00       9.234852927368e-02 
       3.049463386505e+00       9.200503000301e-02 
       3.063919886466e+00       9.166094013223e-02 
       3.078412624674e+00       9.131653173005e-02 
       3.092942510502e+00       9.097148225358e-02 
       3.107510480231e+00       9.062591021003e-02 
       3.122117498038e+00       9.028048142606e-02 
       3.136764557024e+00       8.993443002836e-02 
       3.151452680294e+00       8.958795136576e-02 
       3.166182922084e+00       8.924108763459e-02 
       3.180956368943e+00       8.889426234675e-02 
       3.195774140968e+00       8.854704722549e-02 
       3.210637393101e+00       8.819951597363e-02 
       3.225547316489e+00       8.785185234035e-02 
       3.240505139905e+00       8.750387020686e-02 
       3.255512131246e+00       8.715595449075e-02 
       3.270569599101e+00       8.680806540464e-02 
       3.285678894399e+00       8.646014660354e-02 
       3.300841412141e+00       8.611159583950e-02 
       3.316058593219e+00       8.576309862337e-02 
       3.331331926330e+00       8.541490893772e-02 
       3.346662949994e+00       8.506666756355e-02 
       3.362053254671e+00       8.471788720806e-02 
       3.377504484996e+00       8.436946094663e-02 
       3.393018342135e+00       8.402127356849e-02 
       3.408596586267e+00       8.367272179577e-02 
       3.424241039205e+00       8.332449022916e-02 
       3.439953587161e+00       8.297622120633e-02 
       3.455736183669e+00       8.262788256847e-02 
       3.471590852674e+00       8.227963906553e-02 
       3.487519691797e+00       8.193157375602e-02 
       3.503524875792e+00       8.158370770196e-02 
       3.519608660210e+00       8.123584167780e-02 
       3.535773385275e+00       8.088821834713e-02 
       3.552021480000e+00       8.054075371460e-02 
       3.568355466549e+00       8.019328914883e-02 
       3.584777964874e+00       7.984597440532e-02 
       3.601291697639e+00       7.949865855127e-02 
       3.617899495458e+00       7.915183163994e-02 
       3.634604302463e+00       7.880495606920e-02 
       3.651409182245e+00       7.845842334784e-02 
       3.668317324174e+00       7.811171009855e-02 
       3.685332050145e+00       7.776545589097e-02 
       3.702456821783e+00       7.741910840383e-02 
       3.719695248133e+00       7.707346958338e-02 
       3.737051093889e+00       7.672745696526e-02 
       3.754528288197e+00       7.638178916881e-02 
       3.772130934092e+00       7.603620817343e-02 
       3.789863318600e+00       7.569082220356e-02 
       3.807729923603e+00       7.534549921564e-02 
       3.825735437487e+00       7.500018866515e-02 
       3.843884767684e+00       7.465538375411e-02 
       3.862183054166e+00       7.431066146746e-02 
       3.880635683983e+00       7.396556558291e-02 
       3.899248306948e+00       7.362082871907e-02 
       3.918026852578e+00       7.327594942950e-02 
       3.936977548407e+00       7.293144073813e-02 
       3.956106939802e+00       7.258684710658e-02 
       3.975421911452e+00       7.224225346151e-02 
       3.994929710669e+00       7.189762246508e-02 
       4.014637972716e+00       7.155302828565e-02 
       4.034554748357e+00       7.120861570310e-02 
       4.054688533863e+00       7.086366409566e-02 
       4.075048303757e+00       7.051878132116e-02 
       4.095643546578e+00       7.017381713972e-02 
       4.116484304015e+00       6.982839812895e-02 
       4.137581213787e+00       6.948329078660e-02 
       4.158945556711e+00       6.913746622429e-02 
       4.180589308439e+00       6.879183005421e-02 
       4.202525196440e+00       6.844550294116e-02 
       4.224766762852e+00       6.809884490322e-02 
       4.247328433949e+00       6.775183476453e-02 
       4.270225597059e+00       6.740443791104e-02 
       4.293474685893e+00       6.705635147813e-02 
       4.317093275409e+00       6.670761066676e-02 
       4.341100187481e+00       6.635837379818e-02 
       4.365515608876e+00       6.600834605075e-02 
       4.390361223257e+00       6.565758495648e-02 
       4.415660359236e+00       6.530588026048e-02 
       4.441438156823e+00       6.495334310775e-02 
       4.467721755034e+00       6.459955212764e-02 
       4.494540503911e+00       6.424476602409e-02 
       4.521926204764e+00       6.388849152097e-02 
       4.549913383192e+00       6.353115323232e-02 
       4.578539600252e+00       6.317209101492e-02 
       4.607845808201e+00       6.281170308859e-02 
       4.637876758514e+00       6.244923044526e-02 
       4.668681471389e+00       6.208504700182e-02 
       4.700313777917e+00       6.171877568594e-02 
       4.732832948380e+00       6.135004549021e-02 
       4.766304423141e+00       6.097900507452e-02 
       4.800800666144e+00       6.060504997542e-02 
       4.836402165679e+00       6.022826675618e-02 
       4.873198612712e+00       5.984807930823e-02 
       4.911290294335e+00       5.946438682561e-02 
       4.950789748995e+00       5.907669491153e-02 
       4.991823741729e+00       5.868473292014e-02 
       5.034535632378e+00       5.828796135328e-02 
       5.079088228514e+00       5.788583993109e-02 
       5.125667238756e+00       5.747767719469e-02 
       5.174485472590e+00       5.706322751812e-02 
       5.225787971380e+00       5.664117452193e-02 
       5.279858303541e+00       5.621083133159e-02 
       5.337026316379e+00       5.577100545228e-02 
       5.397677708035e+00       5.532030604226e-02 
       5.462265862729e+00       5.485687582442e-02 
       5.531326471715e+00       5.437891080320e-02 
       5.605495517417e+00       5.388369029603e-02 
       5.685531176973e+00       5.336800279961e-02 
       5.772339995820e+00       5.282751605662e-02 
       5.867007080655e+00       5.225646159979e-02 
       5.970828672126e+00       5.164815896070e-02 
       6.085342607599e+00       5.099235269418e-02 
       6.212346859687e+00       5.027629551077e-02 
       6.353887418373e+00       4.948298575065e-02 
       6.512184251730e+00       4.859003373713e-02 
       6.689452379076e+00       4.756951664769e-02 
       6.887579098190e+00       4.638904170780e-02 
       7.107665945633e+00       4.501622883697e-02 
       7.349554274085e+00       4.342661267947e-02 
       7.611575388948e+00       4.161516783580e-02 
       7.890749048129e+00       3.960519415663e-02 
       8.183405948574e+00       3.745118345566e-02 
       8.485923754311e+00       3.523048616930e-02 
       8.795243154582e+00       3.302981699948e-02 
       9.109053652620e+00       3.093099860079e-02 
       9.425740722526e+00       2.900045066467e-02 
       9.744233352282e+00       2.728313450916e-02 
       1.006384464472e+01       2.580157643533e-02 
       1.038414337309e+01       2.455705299451e-02 
       1.070486240227e+01       2.353320838748e-02 
       1.102583760367e+01       2.270012734451e-02 
       1.134696864342e+01       2.201855185026e-02 
       1.166819437465e+01       2.144438458111e-02 
       1.198947760217e+01       2.093268225375e-02 
       1.231079572619e+01       2.044124121466e-02 
       1.263213502460e+01       1.993502114021e-02 
       1.295348716910e+01       1.938800042319e-02 
       1.327484710635e+01       1.878577789042e-02 
       1.359621177058e+01       1.812515563128e-02 
       1.391757930207e+01       1.741363069898e-02 
       1.423894857272e+01       1.666685863878e-02 
       1.456031889828e+01       1.590593673732e-02 
       1.488168986370e+01       1.515349588979e-02 
       1.520306121724e+01       1.443151604104e-02 
       1.552443280621e+01       1.375861796634e-02 
       1.584580453799e+01       1.314851162070e-02 
       1.616717635642e+01       1.260929965081e-02 
       1.648854822742e+01       1.214326662124e-02 
       1.680992013031e+01       1.174736060059e-02 
