# dimensionless total [l(l+1)/2pi] C_l's
# for l=2 to 3000, i.e. number of multipoles equal to 2999
#
# -> if you prefer output in CAMB/HealPix/LensPix units/order, set 'format' to 'camb' in input file
# -> if you don't want to see such a header, set 'headers' to 'no' in input file
# -> for CMB lensing (phi), these are C_l^phi-phi for the lensing potential.
#    Remember the conversion factors:
#    C_l^dd (deflection) = l(l+1) C_l^phi-phi
#    C_l^gg (shear/convergence) = 1/4 (l(l+1))^2 C_l^phi-phi
#
# 1:l     2:TT                     3:EE                     4:TE                     5:BB                     6:phiphi                 7:TPhi                   8:Ephi               
    2       5.905386045458e-10       3.380853833793e-15       8.130380394484e-13       0.000000000000e+00       2.301202266474e-08      -2.963425729032e-09      -2.236991704232e-12 
    3       4.280017002944e-10       6.770825319394e-15       8.089442936242e-13       0.000000000000e+00       1.455420269219e-08      -1.922672860968e-09      -1.868692676278e-12 
    4       3.410778909448e-10       1.031385270732e-14       7.849700099298e-13       0.000000000000e+00       1.011964826727e-08      -1.378394595395e-09      -1.604096879138e-12 
    5       2.874371313586e-10       1.301772188082e-14       7.424893029263e-13       0.000000000000e+00       7.502822013840e-09      -1.051116113534e-09      -1.373802665469e-12 
    6       2.511117482090e-10       1.427716761151e-14       6.842903573068e-13       0.000000000000e+00       5.826057077281e-09      -8.351119496581e-10      -1.155353299051e-12 
    7       2.250018050061e-10       1.400139559818e-14       6.176934395931e-13       0.000000000000e+00       4.684963705100e-09      -6.834035183926e-10      -9.497894971849e-13 
    8       2.055099264145e-10       1.247460465189e-14       5.482794954338e-13       0.000000000000e+00       3.868561176117e-09      -5.718214916027e-10      -7.600237335380e-13 
    9       1.905360283371e-10       1.018587635008e-14       4.800899482200e-13       0.000000000000e+00       3.258425285586e-09      -4.867697224931e-10      -5.884268489608e-13 
   10       1.788257212148e-10       7.661862325161e-15       4.157811434005e-13       0.000000000000e+00       2.785111126475e-09      -4.200502863806e-10      -4.366549199278e-13 
   11       1.695485339920e-10       5.339542033126e-15       3.569457428762e-13       0.000000000000e+00       2.075150556530e-09      -3.473713603932e-10      -3.064092246325e-13 
   12       1.620865944897e-10       3.496902797464e-15       3.046402332254e-13       0.000000000000e+00       1.795004752013e-09      -3.047118508719e-10      -1.971806840537e-13 
   13       1.560876170077e-10       2.239506347302e-15       2.594857149246e-13       0.000000000000e+00       1.567593275403e-09      -2.693715270151e-10      -1.079978910421e-13 
   14       1.512770805987e-10       1.529177479464e-15       2.217947849691e-13       0.000000000000e+00       1.380363344292e-09      -2.399189746672e-10      -3.882143253720e-14 
   15       1.473698490328e-10       1.236066504465e-15       1.916988121523e-13       0.000000000000e+00       1.224315668349e-09      -2.149003337061e-10       1.242294831873e-14 
   16       1.442188895264e-10       1.195602994178e-15       1.690102153586e-13       0.000000000000e+00       1.092851500739e-09      -1.935787501605e-10       4.686923527562e-14 
   17       1.417121601536e-10       1.256084066457e-15       1.532374250261e-13       0.000000000000e+00       9.810490989400e-10      -1.750933197065e-10       6.710043479614e-14 
   18       1.396894571777e-10       1.304556500079e-15       1.437204097958e-13       0.000000000000e+00       8.847002435295e-10      -1.590688957284e-10       7.524093384380e-14 
   19       1.381244248796e-10       1.299373069919e-15       1.398896399759e-13       0.000000000000e+00       8.023062830818e-10      -1.452597012538e-10       7.338217562037e-14 
   20       1.369159079727e-10       1.222961546053e-15       1.405901685024e-13       0.000000000000e+00       7.302072055981e-10      -1.329942694748e-10       6.470517723887e-14 
   21       1.360281457213e-10       1.100981657101e-15       1.449402598524e-13       0.000000000000e+00       6.671232515292e-10      -1.221041910674e-10       5.126227837001e-14 
   22       1.353856669314e-10       9.788952027813e-16       1.518355091887e-13       0.000000000000e+00       6.114872681455e-10      -1.124115297568e-10       3.514115628866e-14 
   23       1.349775589245e-10       8.879904158479e-16       1.604405450119e-13       0.000000000000e+00       5.624384776351e-10      -1.038030123372e-10       1.803832503785e-14 
   24       1.347720885570e-10       8.533425919077e-16       1.698496645566e-13       0.000000000000e+00       5.187211805019e-10      -9.607747648201e-11       1.638853451029e-15 
   25       1.347504598458e-10       8.768787545326e-16       1.794141853448e-13       0.000000000000e+00       4.797586110064e-10      -8.912721318549e-11      -1.301916941547e-14 
   26       1.348727228050e-10       9.484888264035e-16       1.885252232207e-13       0.000000000000e+00       4.447924260050e-10      -8.281223205352e-11      -2.514327865942e-14 
   27       1.351344679501e-10       1.048196316906e-15       1.968606012753e-13       0.000000000000e+00       4.133595261510e-10      -7.708640783604e-11      -3.433151406916e-14 
   28       1.355243255902e-10       1.151974341468e-15       2.042001892197e-13       0.000000000000e+00       3.848718973917e-10      -7.189167346379e-11      -4.040998672011e-14 
   29       1.360410164990e-10       1.250271588429e-15       2.104779745131e-13       0.000000000000e+00       3.591577408997e-10      -6.719830698616e-11      -4.344038061426e-14 
   30       1.366639557842e-10       1.336982714657e-15       2.156986339668e-13       0.000000000000e+00       3.359140515190e-10      -6.293590099727e-11      -4.369810322374e-14 
   31       1.373558825332e-10       1.407757238639e-15       2.199166994295e-13       0.000000000000e+00       3.146332666946e-10      -5.899833368228e-11      -4.162352042828e-14 
   32       1.381192653178e-10       1.470249313008e-15       2.232812581397e-13       0.000000000000e+00       2.951894011212e-10      -5.537055275230e-11      -3.765963089466e-14 
   33       1.389572118462e-10       1.538034347082e-15       2.260158210299e-13       0.000000000000e+00       2.774309295043e-10      -5.204222931158e-11      -3.238045844626e-14 
   34       1.398621729785e-10       1.625402792392e-15       2.283781213338e-13       0.000000000000e+00       2.610919337825e-10      -4.898183409976e-11      -2.645785717636e-14 
   35       1.408337855259e-10       1.737560076568e-15       2.305434925908e-13       0.000000000000e+00       2.460784031226e-10      -4.617176927328e-11      -2.034944107771e-14 
   36       1.418648102395e-10       1.877085453665e-15       2.326847118435e-13       0.000000000000e+00       2.322592607837e-10      -4.358131176849e-11      -1.451481898186e-14 
   37       1.429414723390e-10       2.045685522075e-15       2.349712907427e-13       0.000000000000e+00       2.194421675129e-10      -4.116857362524e-11      -9.421388401337e-15 
   38       1.440652620996e-10       2.241419310339e-15       2.374564105956e-13       0.000000000000e+00       2.075880791426e-10      -3.892658751627e-11      -5.263000609610e-15 
   39       1.452367142059e-10       2.460448974921e-15       2.401521181259e-13       0.000000000000e+00       1.966543132834e-10      -3.684996176311e-11      -2.150099502056e-15 
   40       1.464485892783e-10       2.697671371122e-15       2.430579667291e-13       0.000000000000e+00       1.865294810402e-10      -3.492117751783e-11      -1.832709275016e-16 
   41       1.476900902309e-10       2.948109007742e-15       2.461450526951e-13       0.000000000000e+00       1.770711397552e-10      -3.311691080590e-11       5.834185421793e-16 
   42       1.489630073305e-10       3.211835748051e-15       2.493049694889e-13       0.000000000000e+00       1.682478156094e-10      -3.143203700675e-11       2.633632011062e-16 
   43       1.502695369392e-10       3.490508776447e-15       2.523820688569e-13       0.000000000000e+00       1.600331858459e-10      -2.986164598883e-11      -9.417753389531e-16 
   44       1.516073339878e-10       3.786044084749e-15       2.551844477544e-13       0.000000000000e+00       1.523635523356e-10      -2.839378012249e-11      -2.770152908007e-15 
   45       1.529719406001e-10       4.100082541738e-15       2.575083900489e-13       0.000000000000e+00       1.451599099066e-10      -2.701358458835e-11      -4.937517807318e-15 
   46       1.543659399911e-10       4.432162488244e-15       2.592258220193e-13       0.000000000000e+00       1.384089923051e-10      -2.571855352361e-11      -7.273055303153e-15 
   47       1.557918157827e-10       4.781026275469e-15       2.602190925106e-13       0.000000000000e+00       1.321014219829e-10      -2.450689220034e-11      -9.617620830358e-15 
   48       1.572490815087e-10       5.145105515996e-15       2.603557634879e-13       0.000000000000e+00       1.262073075357e-10      -2.337292446924e-11      -1.178424207646e-14 
   49       1.587340196817e-10       5.522504437005e-15       2.594878513913e-13       0.000000000000e+00       1.206747258174e-10      -2.230680564320e-11      -1.355667427049e-14 
   50       1.602416497297e-10       5.911592352779e-15       2.574831689780e-13       0.000000000000e+00       1.154450516250e-10      -2.129747587492e-11      -1.473751839319e-14 
   51       1.617728669100e-10       6.313009293970e-15       2.543311402967e-13       0.000000000000e+00       1.105073737436e-10      -2.034313148060e-11      -1.531132536465e-14 
   52       1.633287901336e-10       6.728176008734e-15       2.500643966268e-13       0.000000000000e+00       1.058562257631e-10      -1.944309964040e-11      -1.532326737288e-14 
   53       1.649085501140e-10       7.158744157412e-15       2.447299204649e-13       0.000000000000e+00       1.014753216148e-10      -1.859471489672e-11      -1.483431102912e-14 
   54       1.665091333219e-10       7.606608330184e-15       2.383897974910e-13       0.000000000000e+00       9.733683051201e-11      -1.779318453165e-11      -1.392210502954e-14 
   55       1.681269432047e-10       8.073620742484e-15       2.311118309263e-13       0.000000000000e+00       9.340969834375e-11      -1.703306792856e-11      -1.267674393920e-14 
   56       1.697632955035e-10       8.560624792206e-15       2.229369315545e-13       0.000000000000e+00       8.968869366643e-11      -1.631345342478e-11      -1.118479363861e-14 
   57       1.714200147649e-10       9.068202467221e-15       2.139049438088e-13       0.000000000000e+00       8.617130736280e-11      -1.563383169829e-11      -9.542852264163e-15 
   58       1.730977494830e-10       9.596951057043e-15       2.040644228422e-13       0.000000000000e+00       8.284897389136e-11      -1.499252428002e-11      -7.862999451735e-15 
   59       1.747958829610e-10       1.014748358650e-14       1.934729915208e-13       0.000000000000e+00       7.970669868689e-11      -1.438661181381e-11      -6.273484366645e-15 
   60       1.765124441716e-10       1.072042924940e-14       1.821976974185e-13       0.000000000000e+00       7.672268556097e-11      -1.381186231632e-11      -4.919413733703e-15 
   61       1.782451631876e-10       1.131630363087e-14       1.702953179936e-13       0.000000000000e+00       7.387430968251e-11      -1.326387060893e-11      -3.929915676174e-15 
   62       1.799951159675e-10       1.193508435328e-14       1.577473026381e-13       0.000000000000e+00       7.115844613289e-11      -1.274193777792e-11      -3.309461942186e-15 
   63       1.817637432252e-10       1.257654051555e-14       1.445107947074e-13       0.000000000000e+00       6.857506389477e-11      -1.224593915967e-11      -3.023261690903e-15 
   64       1.835517262757e-10       1.324035087478e-14       1.305371210414e-13       0.000000000000e+00       6.612111504957e-11      -1.177515735790e-11      -3.028264893621e-15 
   65       1.853589342122e-10       1.392610014841e-14       1.157715127291e-13       0.000000000000e+00       6.379036351843e-11      -1.132824893314e-11      -3.272786666565e-15 
   66       1.871843710832e-10       1.463327531638e-14       1.001528258739e-13       0.000000000000e+00       6.157321380318e-11      -1.090321109231e-11      -3.696131603678e-15 
   67       1.890261230698e-10       1.536126192326e-14       8.361326235898e-14       0.000000000000e+00       5.945653972730e-11      -1.049734837814e-11      -4.228218109421e-15 
   68       1.908822078690e-10       1.610949704284e-14       6.608882050875e-14       0.000000000000e+00       5.742715561236e-11      -1.010797987409e-11      -4.800097632811e-15 
   69       1.927534407738e-10       1.687797242897e-14       4.755373022711e-14       0.000000000000e+00       5.548342936923e-11      -9.734801678602e-12      -5.378827210173e-15 
   70       1.946410571113e-10       1.766682714183e-14       2.799252575409e-14       0.000000000000e+00       5.362572567942e-11      -9.377945489367e-12      -5.939020618857e-15 
   71       1.965458322056e-10       1.847620020943e-14       7.389928405205e-15       0.000000000000e+00       5.185289506061e-11      -9.037266329273e-12      -6.452483395196e-15 
   72       1.984680516292e-10       1.930623093659e-14      -1.426915824150e-14       0.000000000000e+00       5.016219576444e-11      -8.712328174942e-12      -6.888115809277e-15 
   73       2.004074814544e-10       2.015705921372e-14      -3.699965315844e-14       0.000000000000e+00       4.854921567446e-11      -8.402389585247e-12      -7.211815839707e-15 
   74       2.023633385049e-10       2.102882582575e-14      -6.081630268150e-14       0.000000000000e+00       4.700779420396e-11      -8.106389329833e-12      -7.386382148386e-15 
   75       2.043342606075e-10       2.192167276099e-14      -8.573368532298e-14       0.000000000000e+00       4.552994419388e-11      -7.822932017641e-12      -7.371417055269e-15 
   76       2.063189148263e-10       2.283570082949e-14      -1.117597415168e-13       0.000000000000e+00       4.410782165602e-11      -7.550632813342e-12      -7.136707462177e-15 
   77       2.083180159751e-10       2.377083291307e-14      -1.388749900561e-13       0.000000000000e+00       4.274022233223e-11      -7.289255927039e-12      -6.705399137626e-15 
   78       2.103326238535e-10       2.472692622359e-14      -1.670495128086e-13       0.000000000000e+00       4.142713342239e-11      -7.038758588136e-12      -6.118555773981e-15 
   79       2.123635215223e-10       2.570381222380e-14      -1.962489676668e-13       0.000000000000e+00       4.016775531134e-11      -6.798943480525e-12      -5.422555936368e-15 
   80       2.144111986368e-10       2.670129606081e-14      -2.264344605846e-13       0.000000000000e+00       3.896046545950e-11      -6.569451734498e-12      -4.669272413710e-15 
   81       2.164758347810e-10       2.771915599953e-14      -2.575624176134e-13       0.000000000000e+00       3.780278229350e-11      -6.349755918660e-12      -3.916251569754e-15 
   82       2.185572828016e-10       2.875714285619e-14      -2.895844569391e-13       0.000000000000e+00       3.669132909673e-11      -6.139153031834e-12      -3.226892694107e-15 
   83       2.206550521414e-10       2.981497943178e-14      -3.224472609179e-13       0.000000000000e+00       3.562179790001e-11      -5.936757494974e-12      -2.670627353257e-15 
   84       2.227686462827e-10       3.089238497858e-14      -3.561048712160e-13       0.000000000000e+00       3.458999207432e-11      -5.741715383836e-12      -2.306677579726e-15 
   85       2.248986758569e-10       3.198915450110e-14      -3.905581964589e-13       0.000000000000e+00       3.359523179497e-11      -5.553903284254e-12      -2.131843897068e-15 
   86       2.270459003665e-10       3.310509162396e-14      -4.258218499504e-13       0.000000000000e+00       3.263744955138e-11      -5.373332981948e-12      -2.124350242277e-15 
   87       2.292108799254e-10       3.423998458408e-14      -4.619123885350e-13       0.000000000000e+00       3.171614392525e-11      -5.199937281366e-12      -2.259400331997e-15 
   88       2.313939645451e-10       3.539360608480e-14      -4.988483934260e-13       0.000000000000e+00       3.083036161063e-11      -5.033566715922e-12      -2.509081027639e-15 
   89       2.335952834193e-10       3.656571315013e-14      -5.366505510335e-13       0.000000000000e+00       2.997867943397e-11      -4.873986258245e-12      -2.842265700496e-15 
   90       2.358147342094e-10       3.775604697893e-14      -5.753417337926e-13       0.000000000000e+00       2.915918637417e-11      -4.720872030413e-12      -3.224517596857e-15 
   91       2.380519723299e-10       3.896433279906e-14      -6.149470809917e-13       0.000000000000e+00       2.836946558262e-11      -4.573808014202e-12      -3.617993203131e-15 
   92       2.403064002337e-10       4.019027972164e-14      -6.554940796001e-13       0.000000000000e+00       2.760657640332e-11      -4.432282761324e-12      -3.981345610954e-15 
   93       2.425774741904e-10       4.143357808464e-14      -6.970053807807e-13       0.000000000000e+00       2.686775108032e-11      -4.295807435516e-12      -4.278389984854e-15 
   94       2.448657006754e-10       4.269389134358e-14      -7.394758379944e-13       0.000000000000e+00       2.615264379734e-11      -4.164297392599e-12      -4.505800693494e-15 
   95       2.471717707243e-10       4.397086268590e-14      -7.828921487989e-13       0.000000000000e+00       2.546138822470e-11      -4.037742174693e-12      -4.669420543713e-15 
   96       2.494962495216e-10       4.526411725507e-14      -8.272397928185e-13       0.000000000000e+00       2.479390491101e-11      -3.916087689413e-12      -4.775893169875e-15 
   97       2.518395700436e-10       4.657326197026e-14      -8.725030128562e-13       0.000000000000e+00       2.414989311365e-11      -3.799234585613e-12      -4.832686674930e-15 
   98       2.542020267020e-10       4.789788534606e-14      -9.186647960060e-13       0.000000000000e+00       2.352882262919e-11      -3.687036629135e-12      -4.848117271473e-15 
   99       2.565837689877e-10       4.923755731228e-14      -9.657068547648e-13       0.000000000000e+00       2.292992562387e-11      -3.579299078548e-12      -4.831372922805e-15 
  100       2.589847951136e-10       5.059182903361e-14      -1.013609608144e-12       0.000000000000e+00       2.235218846405e-11      -3.475777060895e-12      -4.792536983995e-15 
  101       2.614049456586e-10       5.196023272939e-14      -1.062352162783e-12       0.000000000000e+00       2.179434354663e-11      -3.376173947440e-12      -4.742611842941e-15 
  102       2.638438972110e-10       5.334228149331e-14      -1.111912294059e-12       0.000000000000e+00       2.125486112955e-11      -3.280139729408e-12      -4.693542561427e-15 
  103       2.663011560117e-10       5.473746911319e-14      -1.162266427202e-12       0.000000000000e+00       2.073194116221e-11      -3.187269393732e-12      -4.658240516187e-15 
  104       2.687762596991e-10       5.614525812482e-14      -1.213390906650e-12       0.000000000000e+00       2.022392186239e-11      -3.097191136885e-12      -4.647843534038e-15 
  105       2.712694272703e-10       5.756504252406e-14      -1.265266040105e-12       0.000000000000e+00       1.973058590091e-11      -3.009848076135e-12      -4.663023860395e-15 
  106       2.737809854786e-10       5.899617965824e-14      -1.317872568102e-12       0.000000000000e+00       1.925201625453e-11      -2.925251742458e-12      -4.701544631606e-15 
  107       2.763111645521e-10       6.043800123625e-14      -1.371190419871e-12       0.000000000000e+00       1.878819166931e-11      -2.843395011371e-12      -4.760911883459e-15 
