# dimensionless total lensed [l(l+1)/2pi] C_l's
# for l=2 to 2500, i.e. number of multipoles equal to 2499
#
# -> if you prefer output in CAMB/HealPix/LensPix units/order, set 'format' to 'camb' in input file
# -> if you don't want to see such a header, set 'headers' to 'no' in input file
# -> for CMB lensing (phi), these are C_l^phi-phi for the lensing potential.
#    Remember the conversion factors:
#    C_l^dd (deflection) = l(l+1) C_l^phi-phi
#    C_l^gg (shear/convergence) = 1/4 (l(l+1))^2 C_l^phi-phi
#
# 1:l     2:TT                     3:EE                     4:TE                     5:BB                     6:phiphi                 7:TPhi                   8:Ephi               
    2       5.904474148908e-10       3.381237488737e-15       8.129957245930e-13       3.627532510837e-19       2.301342320288e-08      -2.963069813051e-09      -2.236923661111e-12 
    3       4.279280043990e-10       6.771622726089e-15       8.088872943338e-13       7.258846385490e-19       1.455369149202e-08      -1.922355391296e-09      -1.868636070582e-12 
    4       3.410190993597e-10       1.031515360808e-14       7.849056148640e-13       1.210638784220e-18       1.011874455702e-08      -1.378136023010e-09      -1.604054124925e-12 
    5       2.873906403495e-10       1.301956291344e-14       7.424225354275e-13       1.817494329591e-18       7.501983635849e-09      -1.050908970339e-09      -1.373765623730e-12 
    6       2.510751856560e-10       1.427959320314e-14       6.842255040230e-13       2.547028056243e-18       5.825394807977e-09      -8.349441056765e-10      -1.155317812690e-12 
    7       2.249728003136e-10       1.400449338301e-14       6.176336641730e-13       3.399901297898e-18       4.684462331954e-09      -6.832632333040e-10      -9.497539740485e-13 
    8       2.054872112127e-10       1.247851678060e-14       5.482262774601e-13       4.376844374801e-18       3.868164471130e-09      -5.717007132590e-10      -7.599871019939e-13 
    9       1.905191242275e-10       1.019079005399e-14       4.800435022693e-13       5.478639429948e-18       3.258075339402e-09      -4.866643027814e-10      -5.883888591822e-13 
   10       1.788146375057e-10       7.667987576708e-15       4.157414811417e-13       6.706102090059e-18       2.784767881226e-09      -4.199564850957e-10      -4.366169991404e-13 
   11       1.695424828897e-10       5.347086354009e-15       3.569126977371e-13       8.060062408679e-18       2.074908508200e-09      -3.472938251453e-10      -3.063734429899e-13 
   12       1.620855530309e-10       3.506051137777e-15       3.046127356145e-13       9.541345573308e-18       1.794795603104e-09      -3.046411860532e-10      -1.971461175732e-13 
   13       1.560919931869e-10       2.250411110864e-15       2.594613250464e-13       1.115075287208e-17       1.567410856202e-09      -2.693086714140e-10      -1.079674227040e-13 
   14       1.512866351998e-10       1.541958779144e-15       2.217728716339e-13       1.288904341757e-17       1.380202937054e-09      -2.398625087648e-10      -3.879182500353e-14 
   15       1.473848826074e-10       1.250821284475e-15       1.916784685090e-13       1.475691711509e-17       1.224173463664e-09      -2.148487428459e-10       1.244872318422e-14 
   16       1.442389673577e-10       1.212418414836e-15       1.689909307625e-13       1.675499934028e-17       1.092724776978e-09      -1.935318779347e-10       4.688716312141e-14 
   17       1.417381392049e-10       1.275049233730e-15       1.532167610267e-13       1.888382775572e-17       9.809355250582e-10      -1.750501053024e-10       6.711506733276e-14 
   18       1.397213999481e-10       1.325774813148e-15       1.436970733266e-13       2.114384079451e-17       8.845980282488e-10      -1.590295476619e-10       7.525376732563e-14 
   19       1.381621350000e-10       1.322963518629e-15       1.398631875033e-13       2.353537411374e-17       8.022137855750e-10      -1.452239497274e-10       7.339185883076e-14 
   20       1.369594491133e-10       1.249060942609e-15       1.405604788473e-13       2.605864616914e-17       7.301231884038e-10      -1.329607386450e-10       6.470922200938e-14 
   21       1.360778471443e-10       1.129735666259e-15       1.449065618536e-13       2.871377113283e-17       6.670466364803e-10      -1.220723686196e-10       5.126072701362e-14 
   22       1.354420464569e-10       1.010454145512e-15       1.517960904676e-13       3.150074332678e-17       6.114171816944e-10      -1.123822703160e-10       3.513763459883e-14 
   23       1.350406683485e-10       9.225006892804e-16       1.603936437534e-13       3.441946283490e-17       5.623741486274e-10      -1.037763031448e-10       1.803612627674e-14 
   24       1.348414235093e-10       8.909422660399e-16       1.697940849567e-13       3.746971970816e-17       5.186619799757e-10      -9.605195654884e-11       1.639092080180e-15 
   25       1.348259995430e-10       9.176974430302e-16       1.793504689340e-13       4.065123652314e-17       4.797039761162e-10      -8.910241745702e-11      -1.301860108854e-14 
   26       1.349551555928e-10       9.926476120095e-16       1.884555174671e-13       4.396364679255e-17       4.447418827000e-10      -8.278913329946e-11      -2.514694772708e-14 
   27       1.352241021076e-10       1.095813601572e-15       1.967849297646e-13       4.740654094441e-17       4.133126569307e-10      -7.706543145567e-11      -3.433899983636e-14 
   28       1.356207964954e-10       1.203168345819e-15       2.041155883321e-13       5.097945539283e-17       3.848283563275e-10      -7.187216022245e-11      -4.041444469081e-14 
   29       1.361439386730e-10       1.305162761909e-15       2.103819999948e-13       5.468196105930e-17       3.591172018528e-10      -6.717959739145e-11      -4.343722711770e-14 
   30       1.367731729699e-10       1.395695425830e-15       2.155907932953e-13       5.851360121402e-17       3.358762221428e-10      -6.291775279870e-11      -4.368875893826e-14 
   31       1.374714900112e-10       1.470420041786e-15       2.197983817002e-13       6.247390438627e-17       3.145979122415e-10      -5.898093706520e-11      -4.161500670895e-14 
   32       1.382414102347e-10       1.536991120279e-15       2.231533573503e-13       6.656251967423e-17       2.951563015052e-10      -5.535409115019e-11      -3.765664460926e-14 
   33       1.390860348040e-10       1.608983188292e-15       2.258777787835e-13       7.077913945351e-17       2.773998828266e-10      -5.202672485221e-11      -3.238204946798e-14 
   34       1.399978051852e-10       1.700685786309e-15       2.282280056390e-13       7.512350135301e-17       2.610627698977e-10      -4.896715248670e-11      -2.645787338995e-14 
   35       1.409763401372e-10       1.817303979774e-15       2.303797080817e-13       7.959549806339e-17       2.460509641162e-10      -4.615778069747e-11      -2.034369628659e-14 
   36       1.420143770871e-10       1.961416833839e-15       2.325066586602e-13       8.419511870812e-17       2.322334056479e-10      -4.356795119355e-11      -1.450394550529e-14 
   37       1.430981230843e-10       2.134730319259e-15       2.347792840492e-13       8.892244554827e-17       2.194177793306e-10      -4.115584154939e-11      -9.410556883161e-15 
   38       1.442290868459e-10       2.335300805584e-15       2.372504782818e-13       9.377771362481e-17       2.075650463922e-10      -3.891448200251e-11      -5.256687496253e-15 
   39       1.454078374479e-10       2.559286788850e-15       2.399315479827e-13       9.876128637962e-17       1.966325300220e-10      -3.683845730616e-11      -2.150171579444e-15 
   40       1.466271780778e-10       2.801580843884e-15       2.428211403506e-13       1.038736520540e-16       1.865088548968e-10      -3.491022216916e-11      -1.883420009450e-16 
   41       1.478763528842e-10       3.057202725328e-15       2.458894175421e-13       1.091154158673e-16       1.770515953534e-10      -3.310643032606e-11       5.776961391236e-16 
   42       1.491571585746e-10       3.326232430134e-15       2.490275050543e-13       1.144872501842e-16       1.682292808320e-10      -3.142196311379e-11       2.607363436611e-16 
   43       1.504717865751e-10       3.610337141609e-15       2.520794017039e-13       1.199899444444e-16       1.600155908315e-10      -2.985192817050e-11      -9.394466129456e-16 
   44       1.518178843949e-10       3.911444855635e-15       2.548528312740e-13       1.256244296162e-16       1.523468335737e-10      -2.838439136278e-11      -2.763321765128e-15 
   45       1.531909871822e-10       4.231206482536e-15       2.571438965031e-13       1.313917077279e-16       1.451440120507e-10      -2.700452112310e-11      -4.928823202016e-15 
   46       1.545936818970e-10       4.569154853893e-15       2.588252478050e-13       1.372925953126e-16       1.383938615540e-10      -2.570981365583e-11      -7.265275873211e-15 
   47       1.560284591089e-10       4.924020982214e-15       2.597803629341e-13       1.433279177199e-16       1.320870059292e-10      -2.449847044394e-11      -9.613017114301e-15 
   48       1.574948396476e-10       5.294222924718e-15       2.598781551193e-13       1.494985852727e-16       1.261935575778e-10      -2.336481151650e-11      -1.178442041139e-14 
   49       1.589891136637e-10       5.677849016325e-15       2.589722263704e-13       1.558055972183e-16       1.206615997483e-10      -2.229898834764e-11      -1.356244275612e-14 
   50       1.605063023586e-10       6.073256375294e-15       2.569317473633e-13       1.622499248882e-16       1.154325143821e-10      -2.128993792026e-11      -1.474885896445e-14 
   51       1.620472763065e-10       6.481096841425e-15       2.537457109839e-13       1.688321146246e-16       1.104953916433e-10      -2.033585629193e-11      -1.532776975123e-14 
   52       1.636131182712e-10       6.902811973065e-15       2.494456865257e-13       1.755525839019e-16       1.058447657886e-10      -1.943607168838e-11      -1.534396508825e-14 
   53       1.652029167777e-10       7.340077735553e-15       2.440773904406e-13       1.824117310052e-16       1.014643526441e-10      -1.858792043002e-11      -1.485798085226e-14 
   54       1.668136097694e-10       7.794816688216e-15       2.377014279557e-13       1.894099332970e-16       9.732632462880e-11      -1.778661235639e-11      -1.394698439002e-14 
   55       1.684415532210e-10       8.268904312059e-15       2.303842957198e-13       1.965474528515e-16       9.339963120189e-11      -1.702670968139e-11      -1.270069699102e-14 
   56       1.700880414684e-10       8.763174641602e-15       2.221670733558e-13       2.038241298789e-16       8.967904155404e-11      -1.630730207220e-11      -1.120594636669e-14 
   57       1.717548844004e-10       9.278188957117e-15       2.130902532180e-13       2.112396101050e-16       8.616204689066e-11      -1.562788145134e-11      -9.559827812211e-15 
   58       1.734427154568e-10       9.814520265839e-15       2.032031522218e-13       2.187934255043e-16       8.284008267854e-11      -1.498677104844e-11      -7.875008212910e-15 
   59       1.751509024916e-10       1.037275357236e-14       1.925642740207e-13       2.264849889573e-16       7.969815608837e-11      -1.438105368560e-11      -6.280418242153e-15 
   60       1.768774586360e-10       1.095348614903e-14       1.812416711820e-13       2.343135889082e-16       7.671447343724e-11      -1.380650006269e-11      -4.921944559180e-15 
   61       1.786201006252e-10       1.155720406062e-14       1.692930451231e-13       2.422784278251e-16       7.386641249266e-11      -1.325870729237e-11      -3.929410991462e-15 
   62       1.803799030251e-10       1.218387873965e-14       1.567000068792e-13       2.503787597542e-16       7.115084872562e-11      -1.273697537711e-11      -3.307295452467e-15 
   63       1.821583097940e-10       1.283327992578e-14       1.434196359942e-13       2.586137743014e-16       6.856775115689e-11      -1.224117754995e-11      -3.020599946005e-15 
   64       1.839560075134e-10       1.350508783743e-14       1.294031655055e-13       2.669825516796e-16       6.611407224635e-11      -1.177059415111e-11      -3.026027077419e-15 
   65       1.857728726591e-10       1.419888951578e-14       1.145957012158e-13       2.754840587564e-16       6.378357665309e-11      -1.132387931359e-11      -3.271602626411e-15 
   66       1.876079188727e-10       1.491417516884e-14       9.893594096331e-14       2.841171451016e-16       6.156666999562e-11      -1.089902764887e-11      -3.696298119863e-15 
   67       1.894592442327e-10       1.565033451550e-14       8.235589389290e-14       2.928805390338e-16       5.945022761201e-11      -1.049334093245e-11      -4.229653404669e-15 
   68       1.913248817571e-10       1.640680876963e-14       6.479137740879e-14       3.017730589186e-16       5.742106534308e-11      -1.010413572288e-11      -4.802378625419e-15 
   69       1.932056688939e-10       1.718359052567e-14       4.621660541606e-14       3.107943056128e-16       5.547755130821e-11      -9.731107184346e-12      -5.381498401217e-15 
   70       1.951028674120e-10       1.798081906073e-14       2.661613645480e-14       3.199441038711e-16       5.362005016883e-11      -9.374386590111e-12      -5.941683476746e-15 
   71       1.970172825183e-10       1.879863397529e-14       5.974711132417e-15       3.292223010353e-16       5.184741259132e-11      -9.033828661356e-12      -6.454806500616e-15 
   72       1.989492332294e-10       1.963717551787e-14      -1.572275296153e-14       3.386287685871e-16       5.015689715351e-11      -8.708997202533e-12      -6.889845401376e-15 
   73       2.008985227430e-10       2.049658490956e-14      -3.849116634034e-14       3.481634037000e-16       4.854409225122e-11      -8.399150736701e-12      -7.212786763538e-15 
   74       2.028644088106e-10       2.137700466869e-14      -6.234527270527e-14       3.578261307923e-16       4.700283800482e-11      -8.103228140864e-12      -7.386529203590e-15 
   75       2.048455741083e-10       2.227857893540e-14      -8.729965403059e-14       3.676169030792e-16       4.552514816572e-11      -7.819834281308e-12      -7.370786746023e-15 
   76       2.068407233390e-10       2.320141073021e-14      -1.133622199722e-13       3.775357989754e-16       4.410317963783e-11      -7.547585049248e-12      -7.135446234974e-15 
   77       2.088505657356e-10       2.414542401406e-14      -1.405132942022e-13       3.875833281660e-16       4.273572830556e-11      -7.286246860309e-12      -6.703665245703e-15 
   78       2.108761419279e-10       2.511047694710e-14      -1.687227058864e-13       3.977601844287e-16       4.142278137470e-11      -7.035779815991e-12      -6.116494252337e-15 
   79       2.129182127796e-10       2.609640217381e-14      -1.979558405871e-13       4.080671591767e-16       4.016353932193e-11      -6.795989855807e-12      -5.420296166998e-15 
   80       2.149772426114e-10       2.710300626442e-14      -2.281735117388e-13       4.185051449555e-16       3.895637978933e-11      -6.566521762417e-12      -4.666925601718e-15 
   81       2.170533824246e-10       2.813006915645e-14      -2.593318321238e-13       4.290751389411e-16       3.779882147887e-11      -6.346852166761e-12      -3.913908130360e-15 
   82       2.191464531246e-10       2.917734359620e-14      -2.913820853485e-13       4.397782464367e-16       3.668748804706e-11      -6.136282553188e-12      -3.224619550530e-15 
   83       2.212559287442e-10       3.024455458026e-14      -3.242705973189e-13       4.506156843707e-16       3.561807199935e-11      -5.933932264593e-12      -2.668465145500e-15 
   84       2.233812761825e-10       3.133142189062e-14      -3.579510544171e-13       4.615885457076e-16       3.458637716870e-11      -5.738951422788e-12      -2.304642952654e-15 
   85       2.255230758829e-10       3.243773321594e-14      -3.924240858797e-13       4.726970401453e-16       3.359172380640e-11      -5.551215567979e-12      -2.129948189113e-15 
   86       2.276820570447e-10       3.356328218461e-14      -4.277040382062e-13       4.839411333688e-16       3.263404441015e-11      -5.370733886476e-12      -2.122604341651e-15 
   87       2.298587469998e-10       3.470784618104e-14      -4.638071913630e-13       4.953207744314e-16       3.171283761693e-11      -5.197436283994e-12      -2.257814604009e-15 
   88       2.320534604285e-10       3.587118617529e-14      -5.007518394477e-13       5.068358952341e-16       3.082715022499e-11      -5.031170086833e-12      -2.507665239763e-15 
   89       2.342662885741e-10       3.705304655270e-14      -5.385583713531e-13       5.184864100048e-16       2.997555921585e-11      -4.871696743071e-12      -2.841028945191e-15 
   90       2.364970884588e-10       3.825315494352e-14      -5.772493514313e-13       5.302722147774e-16       2.915615377627e-11      -4.718688523746e-12      -3.223468212139e-15 
   91       2.387454720986e-10       3.947122205251e-14      -6.168496001579e-13       5.421931868709e-16       2.836651732031e-11      -4.571725224046e-12      -3.617138690888e-15 
   92       2.410107957187e-10       4.070694148861e-14      -6.573862747959e-13       5.542491843689e-16       2.760370951125e-11      -4.430290864495e-12      -3.980692553024e-15 
   93       2.432924782326e-10       4.195998950028e-14      -6.988817238600e-13       5.664399670884e-16       2.686496289473e-11      -4.293892749554e-12      -4.277943589855e-15 
   94       2.455910348974e-10       4.323002450614e-14      -7.413306459638e-13       5.787649470212e-16       2.614993169783e-11      -4.162446291786e-12      -4.505563177303e-15 
   95       2.479071799039e-10       4.451668717844e-14      -7.847196288167e-13       5.912233992213e-16       2.545874958375e-11      -4.035942235408e-12      -4.669390495905e-15 
   96       2.502415047832e-10       4.581960036161e-14      -8.290340510506e-13       6.038145353936e-16       2.479133711755e-11      -3.914327858344e-12      -4.776065264332e-15 
   97       2.525944721423e-10       4.713836890064e-14      -8.742580636907e-13       6.165375022960e-16       2.414739359750e-11      -3.797505352993e-12      -4.833051373164e-15 
   98       2.549664093988e-10       4.847257946940e-14      -9.203745716270e-13       6.293913801399e-16       2.352638888643e-11      -3.685330207000e-12      -4.848660518659e-15 
   99       2.573575025160e-10       4.982180039893e-14      -9.673652150858e-13       6.423751809927e-16       2.292755524308e-11      -3.577609584016e-12      -4.832075836534e-15 
  100       2.597677897377e-10       5.118558150584e-14      -1.015210351100e-12       6.554878471787e-16       2.234987915344e-11      -3.474100704472e-12      -4.793375535733e-15 
  101       2.621971553236e-10       5.256345392062e-14      -1.063889034982e-12       6.687282496806e-16       2.179209316210e-11      -3.374509226340e-12      -4.743556532205e-15 
  102       2.646453232840e-10       5.395492991593e-14      -1.113379001793e-12       6.820951865413e-16       2.125266770360e-11      -3.278487625905e-12      -4.694558082675e-15 
  103       2.671118511149e-10       5.535950273500e-14      -1.163656647815e-12       6.955873812653e-16       2.072980293377e-11      -3.185633578528e-12      -4.659285418420e-15 
  104       2.695963196173e-10       5.677663534812e-14      -1.214698261565e-12       7.092038380211e-16       2.022183726016e-11      -3.095577567380e-12      -4.648871737722e-15 
  105       2.720989450504e-10       5.820572536229e-14      -1.266483946136e-12       7.229449653378e-16       1.972855337820e-11      -3.008262675474e-12      -4.663992047784e-15 
  106       2.746200383765e-10       5.964613502926e-14      -1.318994194626e-12       7.368116019303e-16       1.925003425410e-11      -2.923699746697e-12      -4.702414547183e-15 
  107       2.771598125007e-10       6.109720160428e-14      -1.372208683179e-12       7.508046757476e-16       1.878625863417e-11      -2.841880901957e-12      -4.761650853667e-15 
