# dimensionless total [l(l+1)/2pi] C_l's
# for l=2 to 3000, i.e. number of multipoles equal to 2999
#
# -> if you prefer output in CAMB/HealPix/LensPix units/order, set 'format' to 'camb' in input file
# -> if you don't want to see such a header, set 'headers' to 'no' in input file
# -> for CMB lensing (phi), these are C_l^phi-phi for the lensing potential.
#    Remember the conversion factors:
#    C_l^dd (deflection) = l(l+1) C_l^phi-phi
#    C_l^gg (shear/convergence) = 1/4 (l(l+1))^2 C_l^phi-phi
#
# 1:l     2:TT                     3:EE                     4:TE                     5:BB                     6:phiphi                 7:TPhi                   8:Ephi               
    2       2.022584858620e-10       7.067143831417e-15       3.162801797860e-13       0.000000000000e+00       5.121319726440e-09       5.615411548743e-10      -2.251752332053e-12 
    3       2.175013158771e-10       1.157372895112e-14       3.385085897709e-13       0.000000000000e+00       3.071352905391e-09       4.691280554108e-10      -1.899643904682e-12 
    4       2.189756767601e-10       1.224791349689e-14       3.594112499912e-13       0.000000000000e+00       2.106217249636e-09       3.924717910713e-10      -1.380752585850e-12 
    5       2.139411825470e-10       9.872049732517e-15       3.841809986504e-13       0.000000000000e+00       1.561218561387e-09       3.321468770087e-10      -8.687998904347e-13 
    6       2.064454801968e-10       6.523941346568e-15       4.006981589804e-13       0.000000000000e+00       1.215287936689e-09       2.845245780525e-10      -4.311933808000e-13 
    7       1.984689618781e-10       3.843462431492e-15       4.009250883788e-13       0.000000000000e+00       9.792202676807e-10       2.464818593691e-10      -9.825253457262e-14 
    8       1.909994924291e-10       2.376304152151e-15       3.830122038606e-13       0.000000000000e+00       8.097206632440e-10       2.156585931177e-10       1.234086414330e-13 
    9       1.844166284309e-10       1.831945199187e-15       3.507086329143e-13       0.000000000000e+00       6.829608227347e-10       1.903960600514e-10       2.432052994020e-13 
   10       1.788379401885e-10       1.663764436203e-15       3.109740788247e-13       0.000000000000e+00       5.849482813845e-10       1.695227027936e-10       2.806667225080e-13 
   11       1.742666369146e-10       1.497610210914e-15       2.711213430619e-13       0.000000000000e+00       4.981369029990e-10       1.526967556377e-10       2.610311308689e-13 
   12       1.705429253059e-10       1.242786093362e-15       2.368285828222e-13       0.000000000000e+00       4.363935793664e-10       1.377484574821e-10       2.066994224731e-13 
   13       1.675230763865e-10       9.794536903459e-16       2.114381629721e-13       0.000000000000e+00       3.856509960199e-10       1.249577266283e-10       1.400929008151e-13 
   14       1.651101708915e-10       8.020367762742e-16       1.961546148216e-13       0.000000000000e+00       3.433812809231e-10       1.140009369930e-10       7.747683733023e-14 
   15       1.632813497568e-10       7.375533188051e-16       1.904624241296e-13       0.000000000000e+00       3.077528936485e-10       1.045319209803e-10       2.893668329082e-14 
   16       1.619361240069e-10       7.537910774372e-16       1.926287041313e-13       0.000000000000e+00       2.774109461381e-10       9.623947965112e-11      -1.197802069654e-15 
   17       1.609926580549e-10       8.073169947511e-16       2.002658924845e-13       0.000000000000e+00       2.513350502243e-10       8.880517953585e-11      -1.350950395681e-14 
   18       1.603107768434e-10       8.779654202170e-16       2.108065390806e-13       0.000000000000e+00       2.286607112264e-10       8.214800350588e-11      -1.177168821659e-14 
   19       1.599436064554e-10       9.732631157988e-16       2.223806205295e-13       0.000000000000e+00       2.090350984147e-10       7.626059248504e-11      -8.404029638759e-16 
   20       1.599009537592e-10       1.106872903740e-15       2.330408167385e-13       0.000000000000e+00       1.917166009669e-10       7.098666436805e-11       1.285666151123e-14 
   21       1.601401081345e-10       1.280692460811e-15       2.420690007785e-13       0.000000000000e+00       1.764414459622e-10       6.624498585490e-11       2.510033812413e-14 
   22       1.605470572048e-10       1.490693760140e-15       2.492135821246e-13       0.000000000000e+00       1.628509419460e-10       6.191047183110e-11       3.234745707768e-14 
   23       1.611413971716e-10       1.730475187151e-15       2.546795972727e-13       0.000000000000e+00       1.507643805308e-10       5.797320185775e-11       3.369824732998e-14 
   24       1.619432002608e-10       1.993400188292e-15       2.589216968345e-13       0.000000000000e+00       1.399088714783e-10       5.441427703967e-11       2.955689159792e-14 
   25       1.629397546044e-10       2.283656276675e-15       2.624625490508e-13       0.000000000000e+00       1.301606390635e-10       5.121414480059e-11       2.158239149540e-14 
   26       1.640792298511e-10       2.608318029666e-15       2.658344274949e-13       0.000000000000e+00       1.213469923644e-10       4.831552992502e-11       1.215063475723e-14 
   27       1.653400788275e-10       2.967969868815e-15       2.691359258509e-13       0.000000000000e+00       1.133662857885e-10       4.565520697049e-11       3.137833373218e-15 
   28       1.666951250703e-10       3.361078934101e-15       2.722664035699e-13       0.000000000000e+00       1.060854281933e-10       4.315511687574e-11      -3.745071437805e-15 
   29       1.681564834794e-10       3.787838940633e-15       2.749333945677e-13       0.000000000000e+00       9.946949357934e-11       4.081751228200e-11      -7.939302637054e-15 
   30       1.697296803464e-10       4.248788461224e-15       2.766980807751e-13       0.000000000000e+00       9.344939583267e-11       3.865392393025e-11      -9.287883447688e-15 
   31       1.714023748306e-10       4.744628512986e-15       2.770662385699e-13       0.000000000000e+00       8.790485765858e-11       3.665897108839e-11      -7.880092219859e-15 
   32       1.731755127449e-10       5.277620987667e-15       2.757544993775e-13       0.000000000000e+00       8.280896655700e-11       3.482491749463e-11      -4.587880632003e-15 
   33       1.750395389280e-10       5.850743790804e-15       2.725163773156e-13       0.000000000000e+00       7.812747799048e-11       3.312888244890e-11      -7.731747233997e-16 
   34       1.769737732755e-10       6.466766928127e-15       2.671292202210e-13       0.000000000000e+00       7.379699674644e-11       3.153806702302e-11       2.134293830013e-15 
   35       1.789802721286e-10       7.126204695020e-15       2.595965056281e-13       0.000000000000e+00       6.979651364950e-11       3.004816905650e-11       3.722228474748e-15 
   36       1.810591542672e-10       7.828618650756e-15       2.500193650440e-13       0.000000000000e+00       6.609501064511e-11       2.865633007512e-11       3.880983787947e-15 
   37       1.832029964622e-10       8.573578312891e-15       2.385213360630e-13       0.000000000000e+00       6.264559192913e-11       2.735373484877e-11       2.603972775042e-15 
   38       1.854127119482e-10       9.362214791142e-15       2.251618686145e-13       0.000000000000e+00       5.944006276274e-11       2.613816282307e-11       2.754642516074e-16 
   39       1.876851317197e-10       1.019617006543e-14       2.099973320887e-13       0.000000000000e+00       5.646891784567e-11       2.500433587436e-11      -2.510314395034e-15 
   40       1.900075833638e-10       1.107719028833e-14       1.931055473524e-13       0.000000000000e+00       5.370472071455e-11       2.393975675437e-11      -5.014172166173e-15 
   41       1.923645542611e-10       1.200683755596e-14       1.745444037646e-13       0.000000000000e+00       5.111182519702e-11       2.292917350645e-11      -6.534280307770e-15 
   42       1.947624870688e-10       1.298549524882e-14       1.542089703844e-13       0.000000000000e+00       4.868311849673e-11       2.197122514457e-11      -7.047041368807e-15 
   43       1.972115176438e-10       1.401305088657e-14       1.319296464800e-13       0.000000000000e+00       4.641259775242e-11       2.106616127263e-11      -6.759085261770e-15 
   44       1.997182086351e-10       1.508915059363e-14       1.075087574956e-13       0.000000000000e+00       4.428433289214e-11       2.021094859184e-11      -5.937332337932e-15 
   45       2.022858599023e-10       1.621332512583e-14       8.076322957319e-14       0.000000000000e+00       4.227826662070e-11       1.940088170836e-11      -4.871788675441e-15 
   46       2.049164785018e-10       1.738544403565e-14       5.167220441391e-14       0.000000000000e+00       4.039155094191e-11       1.863564004052e-11      -3.741623030219e-15 
   47       2.076087277275e-10       1.860537479451e-14       2.027039549099e-14       0.000000000000e+00       3.862224040310e-11       1.791457232642e-11      -2.715581447969e-15 
   48       2.103569298883e-10       1.987285026554e-14      -1.339192421712e-14       0.000000000000e+00       3.696285021073e-11       1.723480416785e-11      -1.990990889314e-15 
   49       2.131507130359e-10       2.118746350172e-14      -4.924821523184e-14       0.000000000000e+00       3.539994287845e-11       1.659107076280e-11      -1.795233918527e-15 
   50       2.159789026338e-10       2.254883483844e-14      -8.722995977315e-14       0.000000000000e+00       3.391823007634e-11       1.597736616802e-11      -2.309586330684e-15 
   51       2.188432614906e-10       2.395717870930e-14      -1.273157388079e-13       0.000000000000e+00       3.251514974714e-11       1.539280691122e-11      -3.412936795973e-15 
   52       2.217478687234e-10       2.541288169427e-14      -1.694942543274e-13       0.000000000000e+00       3.118953127924e-11       1.483707085812e-11      -4.871051899709e-15 
   53       2.246950509138e-10       2.691634650946e-14      -2.137504971475e-13       0.000000000000e+00       2.993723002560e-11       1.430863994697e-11      -6.406006094363e-15 
   54       2.276852285977e-10       2.846799491321e-14      -2.600657455698e-13       0.000000000000e+00       2.875092643189e-11       1.380471840484e-11      -7.694002879512e-15 
   55       2.307179671766e-10       3.006803115279e-14      -3.084259102963e-13       0.000000000000e+00       2.762239349920e-11       1.332215905685e-11      -8.448132079179e-15 
   56       2.337957870501e-10       3.171565683136e-14      -3.588489998526e-13       0.000000000000e+00       2.655041897709e-11       1.286069908424e-11      -8.695707996842e-15 
   57       2.369210311170e-10       3.340966608736e-14      -4.113644758204e-13       0.000000000000e+00       2.553449937045e-11       1.242038484755e-11      -8.566011637607e-15 
   58       2.400946390166e-10       3.514866168161e-14      -4.660058211654e-13       0.000000000000e+00       2.457244160864e-11       1.200059263845e-11      -8.212496700151e-15 
   59       2.433160405443e-10       3.693104857387e-14      -5.228108640767e-13       0.000000000000e+00       2.366025834245e-11       1.159998617241e-11      -7.813919955265e-15 
   60       2.465830490668e-10       3.875502749928e-14      -5.818221018075e-13       0.000000000000e+00       2.279206324108e-11       1.121647408138e-11      -7.575471624409e-15 
   61       2.498930971553e-10       4.061881624041e-14      -6.430709603553e-13       0.000000000000e+00       2.196172457652e-11       1.084785572058e-11      -7.678641643208e-15 
   62       2.532475087136e-10       4.252138601361e-14      -7.065257122762e-13       0.000000000000e+00       2.116849657273e-11       1.049402414497e-11      -8.115111369624e-15 
   63       2.566480010027e-10       4.446187972611e-14      -7.721323899222e-13       0.000000000000e+00       2.041247202837e-11       1.015518443481e-11      -8.817413281201e-15 
   64       2.600953643103e-10       4.643939965121e-14      -8.398296358339e-13       0.000000000000e+00       1.969288762362e-11       9.831188757351e-12      -9.706418644323e-15 
   65       2.635893979536e-10       4.845300822942e-14      -9.095485168767e-13       0.000000000000e+00       1.900807500621e-11       9.521515699115e-12      -1.069084132115e-14 
   66       2.671288462822e-10       5.050172886950e-14      -9.812123383775e-13       0.000000000000e+00       1.835541187760e-11       9.225249598295e-12      -1.166674157658e-14 
   67       2.707113346813e-10       5.258454674963e-14      -1.054736458261e-12       0.000000000000e+00       1.773127307903e-11       8.941059877094e-12      -1.251702988517e-14 
   68       2.743344290871e-10       5.470022493392e-14      -1.130036860444e-12       0.000000000000e+00       1.713200911204e-11       8.667581703949e-12      -1.313761411247e-14 
   69       2.779992068862e-10       5.684670766452e-14      -1.207058307758e-12       0.000000000000e+00       1.655722127687e-11       8.404693746038e-12      -1.352310247438e-14 
   70       2.817072979318e-10       5.902159704442e-14      -1.285751585867e-12       0.000000000000e+00       1.600706534145e-11       8.152463384400e-12      -1.369765465947e-14 
   71       2.854597904201e-10       6.122232317208e-14      -1.366065286214e-12       0.000000000000e+00       1.548126059362e-11       7.910758075051e-12      -1.369005686425e-14 
   72       2.892571956274e-10       6.344614021914e-14      -1.447945844182e-12       0.000000000000e+00       1.497906720436e-11       7.679234945526e-12      -1.353390701637e-14 
   73       2.930994126477e-10       6.569012250818e-14      -1.531337577251e-12       0.000000000000e+00       1.449926359100e-11       7.457330391429e-12      -1.326779999777e-14 
   74       2.969856931292e-10       6.795116059039e-14      -1.616182723156e-12       0.000000000000e+00       1.404012378038e-11       7.244249672981e-12      -1.293551286785e-14 
   75       3.009146060120e-10       7.022595732328e-14      -1.702421478047e-12       0.000000000000e+00       1.359939477210e-11       7.038956511565e-12      -1.258619008664e-14 
   76       3.048846567123e-10       7.251132847563e-14      -1.789992436736e-12       0.000000000000e+00       1.317486085917e-11       6.840441287059e-12      -1.226421434398e-14 
   77       3.088963529782e-10       7.480517649764e-14      -1.878833921790e-12       0.000000000000e+00       1.276620543376e-11       6.648605089540e-12      -1.197627714945e-14 
   78       3.129504534376e-10       7.710568802145e-14      -1.968882967255e-12       0.000000000000e+00       1.237344914163e-11       6.463518726687e-12      -1.171861202026e-14 
   79       3.170473250816e-10       7.941104737175e-14      -2.060074983722e-12       0.000000000000e+00       1.199638261447e-11       6.285153810032e-12      -1.148675030584e-14 
   80       3.211869214222e-10       8.171943888808e-14      -2.152343804728e-12       0.000000000000e+00       1.163455586925e-11       6.113378064438e-12      -1.127549490600e-14 
   81       3.253687606490e-10       8.402904924711e-14      -2.245621733161e-12       0.000000000000e+00       1.128726770733e-11       5.947950637580e-12      -1.107889398907e-14 
   82       3.295919037867e-10       8.633806978496e-14      -2.339839587663e-12       0.000000000000e+00       1.095355511382e-11       5.788517409435e-12      -1.089021471011e-14 
   83       3.338549328521e-10       8.864469881944e-14      -2.434926749034e-12       0.000000000000e+00       1.063218265674e-11       5.634606301753e-12      -1.070191692905e-14 
   84       3.381564100418e-10       9.094699325586e-14      -2.530808417927e-12       0.000000000000e+00       1.032194548611e-11       5.485748853464e-12      -1.050745335274e-14 
   85       3.424963906065e-10       9.324239005173e-14      -2.627396763959e-12       0.000000000000e+00       1.002265926604e-11       5.341878378565e-12      -1.030707041515e-14 
   86       3.468751218973e-10       9.552810930999e-14      -2.724598387567e-12       0.000000000000e+00       9.734315679462e-12       5.202989521436e-12      -1.010292534502e-14 
   87       3.512925710794e-10       9.780129773445e-14      -2.822316977794e-12       0.000000000000e+00       9.456778167925e-12       5.069015329080e-12      -9.897349594131e-15 
   88       3.557484113735e-10       1.000590284190e-13      -2.920453311832e-12       0.000000000000e+00       9.189776601404e-12       4.939824682719e-12      -9.692853251634e-15 
   89       3.602420082974e-10       1.022983006370e-13      -3.018905254545e-12       0.000000000000e+00       8.932901948131e-12       4.815219729393e-12      -9.492129458428e-15 
   90       3.647724059080e-10       1.045160396303e-13      -3.117567758015e-12       0.000000000000e+00       8.685600944413e-12       4.694933313557e-12      -9.298058821526e-15 
   91       3.693383130429e-10       1.067090963986e-13      -3.216332861067e-12       0.000000000000e+00       8.447170764456e-12       4.578626408681e-12      -9.113713828417e-15 
   92       3.739380895621e-10       1.088742474886e-13      -3.315089688809e-12       0.000000000000e+00       8.216753690192e-12       4.465885548847e-12      -8.942363261434e-15 
   93       3.785701187928e-10       1.110083468577e-13      -3.413728188907e-12       0.000000000000e+00       7.993542046304e-12       4.356324085422e-12      -8.786716283164e-15 
   94       3.832340188241e-10       1.131088080496e-13      -3.512150984215e-12       0.000000000000e+00       7.777439840351e-12       4.249908956270e-12      -8.646515054655e-15 
   95       3.879295888011e-10       1.151731944855e-13      -3.610263310215e-12       0.000000000000e+00       7.568491241434e-12       4.146678542615e-12      -8.520586523804e-15 
   96       3.926564306108e-10       1.171990757031e-13      -3.707969487262e-12       0.000000000000e+00       7.366676770430e-12       4.046642095085e-12      -8.407564551287e-15 
   97       3.974139404250e-10       1.191840292333e-13      -3.805172971407e-12       0.000000000000e+00       7.171910856097e-12       3.949778590505e-12      -8.305883888017e-15 
   98       4.022013002434e-10       1.211256424771e-13      -3.901776405230e-12       0.000000000000e+00       6.984039391170e-12       3.856035588682e-12      -8.213774152598e-15 
   99       4.070174694368e-10       1.230215145822e-13      -3.997681668665e-12       0.000000000000e+00       6.802837288457e-12       3.765328089193e-12      -8.129253808777e-15 
  100       4.118611762900e-10       1.248692583197e-13      -4.092789929830e-12       0.000000000000e+00       6.628006036944e-12       3.677537388172e-12      -8.050124142904e-15 
  101       4.167309095450e-10       1.266665019608e-13      -4.187001695855e-12       0.000000000000e+00       6.459171257887e-12       3.592509935103e-12      -7.973963241381e-15 
  102       4.216249099439e-10       1.284108911540e-13      -4.280216863708e-12       0.000000000000e+00       6.295880260915e-12       3.510056189598e-12      -7.898119968121e-15 
  103       4.265411617722e-10       1.301000908010e-13      -4.372334771025e-12       0.000000000000e+00       6.137599600129e-12       3.429949478197e-12      -7.819707941997e-15 
  104       4.314777070689e-10       1.317318341766e-13      -4.463254516669e-12       0.000000000000e+00       5.983836631209e-12       3.351979402063e-12      -7.736212739203e-15 
  105       4.364336548128e-10       1.333040737993e-13      -4.552875862237e-12       0.000000000000e+00       5.834528147623e-12       3.276122738982e-12      -7.647419887686e-15 
  106       4.414082929315e-10       1.348148545345e-13      -4.641098547657e-12       0.000000000000e+00       5.689699931776e-12       3.202393603933e-12      -7.553737301354e-15 
  107       4.464007729553e-10       1.362622705394e-13      -4.727822085478e-12       0.000000000000e+00       5.549346373881e-12       3.130790422561e-12      -7.455606020003e-15 
