# dimensionless total [l(l+1)/2pi] C_l's
# for l=2 to 3000, i.e. number of multipoles equal to 2999
#
# -> if you prefer output in CAMB/HealPix/LensPix units/order, set 'format' to 'camb' in input file
# -> if you don't want to see such a header, set 'headers' to 'no' in input file
# -> for CMB lensing (phi), these are C_l^phi-phi for the lensing potential.
#    Remember the conversion factors:
#    C_l^dd (deflection) = l(l+1) C_l^phi-phi
#    C_l^gg (shear/convergence) = 1/4 (l(l+1))^2 C_l^phi-phi
#
# 1:l     2:TT                     3:EE                     4:TE                     5:BB                     6:phiphi                 7:TPhi                   8:Ephi               
    2       1.694010505656e-10       1.010497641090e-14       4.767249523553e-13       0.000000000000e+00       6.239949464829e-09       5.157813340840e-10      -2.772712453231e-12 
    3       1.625776181476e-10       1.518517418926e-14       5.416905549202e-13       0.000000000000e+00       3.771833916067e-09       3.899935583262e-10      -2.261247363975e-12 
    4       1.538379022061e-10       1.530478214308e-14       5.296107431949e-13       0.000000000000e+00       2.586927496404e-09       3.091387484082e-10      -1.610136560049e-12 
    5       1.460262729799e-10       1.190258293853e-14       4.876209353074e-13       0.000000000000e+00       1.911369180608e-09       2.528692643232e-10      -1.001852661695e-12 
    6       1.396970071293e-10       7.614990300656e-15       4.367600451114e-13       0.000000000000e+00       1.481480062774e-09       2.115480980936e-10      -4.980617032101e-13 
    7       1.348431566363e-10       4.353017240403e-15       3.861934960380e-13       0.000000000000e+00       1.187211931764e-09       1.800318006261e-10      -1.223038392626e-13 
    8       1.312089892223e-10       2.655208095576e-15       3.388399636736e-13       0.000000000000e+00       9.752622568373e-10       1.553495110630e-10       1.247976873687e-13 
    9       1.286600438388e-10       2.083321268877e-15       2.957156909141e-13       0.000000000000e+00       8.171049259493e-10       1.356792438648e-10       2.575362481807e-13 
   10       1.270412284256e-10       1.936268573038e-15       2.575433004261e-13       0.000000000000e+00       6.957686836977e-10       1.197584970141e-10       2.994802513350e-13 
   11       1.260976889141e-10       1.751796508786e-15       2.252527896864e-13       0.000000000000e+00       5.905467003727e-10       1.070531177469e-10       2.778721200805e-13 
   12       1.257324156149e-10       1.424246261002e-15       1.995633977631e-13       0.000000000000e+00       5.147365974444e-10       9.608138616283e-11       2.211876737747e-13 
   13       1.258346042882e-10       1.059839886771e-15       1.805751858758e-13       0.000000000000e+00       4.526878026356e-10       8.666452369760e-11       1.512204979305e-13 
   14       1.263184531259e-10       7.838669852847e-16       1.680289521586e-13       0.000000000000e+00       4.011893902025e-10       7.872565397632e-11       8.564494493846e-14 
   15       1.270865297968e-10       6.400618296691e-16       1.614054637113e-13       0.000000000000e+00       3.579451023369e-10       7.194326155924e-11       3.507747614028e-14 
   16       1.280769407995e-10       5.983581950784e-16       1.598483337431e-13       0.000000000000e+00       3.212552797342e-10       6.596860799867e-11       3.772763346883e-15 
   17       1.293056934996e-10       6.103265648265e-16       1.622068182287e-13       0.000000000000e+00       2.898379602480e-10       6.062790155608e-11      -8.988688437767e-15 
   18       1.306664712260e-10       6.491008000079e-16       1.672324597671e-13       0.000000000000e+00       2.626158576564e-10       5.590535713640e-11      -7.362914039546e-15 
   19       1.321777128695e-10       7.162938687011e-16       1.740064674917e-13       0.000000000000e+00       2.391381631098e-10       5.177047495858e-11       3.522230438700e-15 
   20       1.338410556142e-10       8.184390585606e-16       1.814377534565e-13       0.000000000000e+00       2.184907834241e-10       4.806984843859e-11       1.699802240746e-14 
   21       1.356317502113e-10       9.523248879374e-16       1.889867575270e-13       0.000000000000e+00       2.003407246509e-10       4.474985790977e-11       2.882036866227e-14 
   22       1.374854833834e-10       1.109574529318e-15       1.962417401332e-13       0.000000000000e+00       1.842444241277e-10       4.174173568671e-11       3.551343522975e-14 
   23       1.394326229278e-10       1.283020628755e-15       2.030508553650e-13       0.000000000000e+00       1.699750739719e-10       3.904152112564e-11       3.628829227523e-14 
   24       1.415035309243e-10       1.467009243592e-15       2.093432459948e-13       0.000000000000e+00       1.571979352669e-10       3.662699816447e-11       3.166108974552e-14 
   25       1.436777001251e-10       1.667815286925e-15       2.151172425850e-13       0.000000000000e+00       1.457591351455e-10       3.444660668837e-11       2.324868149930e-14 
   26       1.459035415261e-10       1.895052882706e-15       2.203858910623e-13       0.000000000000e+00       1.354482673126e-10       3.242345663251e-11       1.337777474782e-14 
   27       1.481827580052e-10       2.149846981067e-15       2.251171510710e-13       0.000000000000e+00       1.261397975428e-10       3.055391653295e-11       4.144680693661e-15 
   28       1.505217067963e-10       2.430603482068e-15       2.292385072122e-13       0.000000000000e+00       1.176716056271e-10       2.884286633774e-11      -2.481854146385e-15 
   29       1.529275767543e-10       2.737385232250e-15       2.325878752520e-13       0.000000000000e+00       1.099987960482e-10       2.728387724458e-11      -6.064686286126e-15 
   30       1.553930439008e-10       3.070565563496e-15       2.349417437879e-13       0.000000000000e+00       1.030369931655e-10       2.585015703134e-11      -6.742001702423e-15 
   31       1.578994957217e-10       3.430565603421e-15       2.360644493284e-13       0.000000000000e+00       9.664195974660e-11       2.450392293205e-11      -4.907549732195e-15 
   32       1.604537654417e-10       3.818923093597e-15       2.358452999932e-13       0.000000000000e+00       9.077985467763e-11       2.324552533054e-11      -1.462115775591e-15 
   33       1.630623231959e-10       4.237632779248e-15       2.342114867614e-13       0.000000000000e+00       8.540879971380e-11       2.208050733548e-11       2.301291426761e-15 
   34       1.657232794649e-10       4.688532051088e-15       2.311079002068e-13       0.000000000000e+00       8.045308199025e-11       2.100680840487e-11       5.036187362171e-15 
   35       1.684365061261e-10       5.172082919189e-15       2.265494324152e-13       0.000000000000e+00       7.588672033370e-11       2.001776591959e-11       6.386230659219e-15 
   36       1.711950529067e-10       5.688141043833e-15       2.205891401544e-13       0.000000000000e+00       7.167234290547e-11       1.909865514357e-11       6.299618271425e-15 
   37       1.739871012843e-10       6.236609071643e-15       2.132786651965e-13       0.000000000000e+00       6.775428580006e-11       1.823109347933e-11       4.830847297771e-15 
   38       1.768155925886e-10       6.818653898479e-15       2.045740258499e-13       0.000000000000e+00       6.412202608572e-11       1.741382515012e-11       2.392305918323e-15 
   39       1.796837624919e-10       7.435887487846e-15       1.943989034446e-13       0.000000000000e+00       6.076373206076e-11       1.664791581364e-11      -4.017746768464e-16 
   40       1.825891064204e-10       8.090051276379e-15       1.826689822982e-13       0.000000000000e+00       5.764698613890e-11       1.593074815158e-11      -2.790564365151e-15 
   41       1.855262200159e-10       8.782744940990e-15       1.692969637594e-13       0.000000000000e+00       5.472999279046e-11       1.525738029806e-11      -4.063750614998e-15 
   42       1.884978983063e-10       9.514487396635e-15       1.542112312311e-13       0.000000000000e+00       5.200390013865e-11       1.462597979853e-11      -4.252658699661e-15 
   43       1.915066234545e-10       1.028536350298e-14       1.373420990901e-13       0.000000000000e+00       4.946123796387e-11       1.403357966922e-11      -3.648293177036e-15 
   44       1.945510607039e-10       1.109526582639e-14       1.186163397526e-13       0.000000000000e+00       4.708322346391e-11       1.347430591531e-11      -2.618950120403e-15 
   45       1.976281289241e-10       1.194399254298e-14       9.797423910864e-14       0.000000000000e+00       4.484640932834e-11       1.294142258565e-11      -1.543841835230e-15 
   46       2.007408292612e-10       1.283160264275e-14       7.542753151100e-14       0.000000000000e+00       4.274711617918e-11       1.243473071066e-11      -5.789607152219e-16 
   47       2.038921225483e-10       1.375814772225e-14       5.101828819754e-14       0.000000000000e+00       4.078277549076e-11       1.195499538300e-11       1.705911901984e-16 
   48       2.070824628050e-10       1.472356714972e-14       2.480376205061e-14       0.000000000000e+00       3.894456463392e-11       1.150177226859e-11       5.847918095661e-16 
   49       2.103095650135e-10       1.572768306891e-14      -3.142905437061e-15       0.000000000000e+00       3.721694266276e-11       1.107331154723e-11       5.279837504404e-16 
   50       2.135700836281e-10       1.677037614994e-14      -3.275645350700e-14       0.000000000000e+00       3.558230010639e-11       1.066720399568e-11      -9.908387249823e-17 
   51       2.168657239825e-10       1.785218067355e-14      -6.406005652003e-14       0.000000000000e+00       3.403747325220e-11       1.028274884090e-11      -1.184817074636e-15 
   52       2.201983883419e-10       1.897384233956e-14      -9.710541311459e-14       0.000000000000e+00       3.258091005708e-11       9.919062589339e-12      -2.535102480570e-15 
   53       2.235682712270e-10       2.013615506375e-14      -1.319506152702e-13       0.000000000000e+00       3.120772967580e-11       9.574333374733e-12      -3.920200626006e-15 
   54       2.269737171065e-10       2.133996448747e-14      -1.686605931681e-13       0.000000000000e+00       2.990949890688e-11       9.245759823106e-12      -5.072978568355e-15 
   55       2.304124683303e-10       2.258594643291e-14      -2.072964801132e-13       0.000000000000e+00       2.867678308227e-11       8.930381867382e-12      -5.758268692668e-15 
   56       2.338860979736e-10       2.387386977969e-14      -2.478795943263e-13       0.000000000000e+00       2.750805295591e-11       8.627954937440e-12      -6.005171165026e-15 
   57       2.373964289445e-10       2.520315661826e-14      -2.904192886638e-13       0.000000000000e+00       2.640259890484e-11       8.338682697823e-12      -5.929364674327e-15 
   58       2.409441540036e-10       2.657308611620e-14      -3.349232595012e-13       0.000000000000e+00       2.535783739939e-11       8.062361845923e-12      -5.668018254713e-15 
   59       2.445287476221e-10       2.798278925937e-14      -3.813975599080e-13       0.000000000000e+00       2.436919554421e-11       7.798355728264e-12      -5.380795046648e-15 
   60       2.481483778404e-10       2.943124359319e-14      -4.298466128217e-13       0.000000000000e+00       2.342999561940e-11       7.545567956792e-12      -5.250856057983e-15 
   61       2.518009980700e-10       3.091746932373e-14      -4.802708676772e-13       0.000000000000e+00       2.253329656456e-11       7.302806382131e-12      -5.439809937963e-15 
   62       2.554881082766e-10       3.244118095449e-14      -5.326591258337e-13       0.000000000000e+00       2.167816264573e-11       7.070030169489e-12      -5.938475042761e-15 
   63       2.592116854685e-10       3.400227325034e-14      -5.869945080463e-13       0.000000000000e+00       2.086460337765e-11       6.847337097870e-12      -6.684248056539e-15 
   64       2.629730285511e-10       3.560063389226e-14      -6.432565986255e-13       0.000000000000e+00       2.009168843364e-11       6.634584183009e-12      -7.603753610737e-15 
   65       2.667727076240e-10       3.723614460757e-14      -7.014213838408e-13       0.000000000000e+00       1.935749427895e-11       6.431373679392e-12      -8.612386786968e-15 
   66       2.706105132784e-10       3.890868230009e-14      -7.614611903238e-13       0.000000000000e+00       1.865905080417e-11       6.237039082275e-12      -9.613855619898e-15 
   67       2.744854058940e-10       4.061812018040e-14      -8.233446234712e-13       0.000000000000e+00       1.799228795863e-11       6.050631129704e-12      -1.049972360014e-14 
   68       2.783962230506e-10       4.236411861236e-14      -8.870379006087e-13       0.000000000000e+00       1.735311463164e-11       5.871185805124e-12      -1.117345897567e-14 
   69       2.823440815490e-10       4.414544591378e-14      -9.525093018553e-13       0.000000000000e+00       1.674102844073e-11       5.698622694264e-12      -1.162926395572e-14 
   70       2.863303732543e-10       4.596052133010e-14      -1.019725514610e-12       0.000000000000e+00       1.615614487218e-11       5.533004348796e-12      -1.188846990043e-14 
   71       2.903560192927e-10       4.780760896948e-14      -1.088650293126e-12       0.000000000000e+00       1.559810577916e-11       5.374263727702e-12      -1.197661003533e-14 
   72       2.944214387386e-10       4.968481355486e-14      -1.159244432588e-12       0.000000000000e+00       1.506605497291e-11       5.222197411591e-12      -1.192358872653e-14 
   73       2.985265173001e-10       5.159007617608e-14      -1.231465743183e-12       0.000000000000e+00       1.455861381386e-11       5.076458817001e-12      -1.176385075597e-14 
   74       3.026705760053e-10       5.352117004199e-14      -1.305269024181e-12       0.000000000000e+00       1.407385680277e-11       4.936551410716e-12      -1.153655059667e-14 
   75       3.068523398889e-10       5.547569623259e-14      -1.380606038004e-12       0.000000000000e+00       1.360928717183e-11       4.801821924069e-12      -1.128572168792e-14 
   76       3.110704819806e-10       5.745138042238e-14      -1.457429232635e-12       0.000000000000e+00       1.316245189686e-11       4.671627921659e-12      -1.105110359403e-14 
   77       3.153254390137e-10       5.944703490874e-14      -1.535703749812e-12       0.000000000000e+00       1.273297016626e-11       4.545890785049e-12      -1.083831816868e-14 
   78       3.196178714672e-10       6.146176511162e-14      -1.615397569660e-12       0.000000000000e+00       1.232083218574e-11       4.424631708582e-12      -1.064353714177e-14 
   79       3.239480984364e-10       6.349468605794e-14      -1.696478006731e-12       0.000000000000e+00       1.192578145844e-11       4.307803132352e-12      -1.046231983159e-14 
   80       3.283160781153e-10       6.554492430542e-14      -1.778911760945e-12       0.000000000000e+00       1.154730348788e-11       4.195285531790e-12      -1.028959085235e-14 
   81       3.327213882809e-10       6.761161986629e-14      -1.862664968523e-12       0.000000000000e+00       1.118461448098e-11       4.086884207256e-12      -1.011961782176e-14 
   82       3.371632067756e-10       6.969392813113e-14      -1.947703252931e-12       0.000000000000e+00       1.083665005099e-11       3.982326073622e-12      -9.945989068566e-15 
   83       3.416402919912e-10       7.179102179255e-14      -2.033991775808e-12       0.000000000000e+00       1.050205392055e-11       3.881256449863e-12      -9.761591340160e-15 
   84       3.461514390779e-10       7.390191444827e-14      -2.121491116832e-12       0.000000000000e+00       1.017950451887e-11       3.783330534831e-12      -9.560580566961e-15 
   85       3.506969782221e-10       7.602489359662e-14      -2.210144016911e-12       0.000000000000e+00       9.868781728481e-12       3.688512290860e-12      -9.344718370480e-15 
   86       3.552774901231e-10       7.815799673377e-14      -2.299886520464e-12       0.000000000000e+00       9.569857092226e-12       3.596819452973e-12      -9.118050026106e-15 
   87       3.598933409998e-10       8.029918025965e-14      -2.390651932218e-12       0.000000000000e+00       9.282566107127e-12       3.508231652952e-12      -8.885015843193e-15 
   88       3.645446710691e-10       8.244631840476e-14      -2.482370798046e-12       0.000000000000e+00       9.006602606253e-12       3.422688800286e-12      -8.650462369379e-15 
   89       3.692313830246e-10       8.459720215694e-14      -2.574970885802e-12       0.000000000000e+00       8.741513140598e-12       3.340089463128e-12      -8.419653594900e-15 
   90       3.739531305154e-10       8.674953818813e-14      -2.668377166151e-12       0.000000000000e+00       8.486691360957e-12       3.260289249242e-12      -8.198282156910e-15 
   91       3.787093066246e-10       8.890094778116e-14      -2.762511793411e-12       0.000000000000e+00       8.241372399806e-12       3.183099186961e-12      -7.992480543799e-15 
   92       3.834990323481e-10       9.104896575654e-14      -2.857294086384e-12       0.000000000000e+00       8.004627253170e-12       3.108284106136e-12      -7.808832299507e-15 
   93       3.883214136791e-10       9.319117054013e-14      -2.952643848946e-12       0.000000000000e+00       7.775581152913e-12       3.035620810543e-12      -7.652832733130e-15 
   94       3.931763821168e-10       9.532559907442e-14      -3.048491944713e-12       0.000000000000e+00       7.554118455795e-12       2.965086119894e-12      -7.523981887311e-15 
   95       3.980639598568e-10       9.745039261604e-14      -3.144771284772e-12       0.000000000000e+00       7.340273875723e-12       2.896694247496e-12      -7.419970833569e-15 
   96       4.029839947192e-10       9.956367187224e-14      -3.241413655960e-12       0.000000000000e+00       7.134015430166e-12       2.830438741136e-12      -7.338156464164e-15 
   97       4.079361523148e-10       1.016635377278e-13      -3.338349747546e-12       0.000000000000e+00       6.935241896708e-12       2.766291684783e-12      -7.275551413033e-15 
   98       4.129199082110e-10       1.037480719720e-13      -3.435509177906e-12       0.000000000000e+00       6.743780269608e-12       2.704202900285e-12      -7.228813976716e-15 
   99       4.179345400968e-10       1.058153380255e-13      -3.532820521206e-12       0.000000000000e+00       6.559383216351e-12       2.644099149070e-12      -7.194238035291e-15 
  100       4.229791199496e-10       1.078633816673e-13      -3.630211334079e-12       0.000000000000e+00       6.381726534209e-12       2.585883333845e-12      -7.167742973301e-15 
  101       4.280525062001e-10       1.098902317617e-13      -3.727608182306e-12       0.000000000000e+00       6.210406606793e-12       2.529433700301e-12      -7.144863600687e-15 
  102       4.331533358988e-10       1.118939009852e-13      -3.824936667497e-12       0.000000000000e+00       6.044937860611e-12       2.474603038805e-12      -7.120740073721e-15 
  103       4.382800168812e-10       1.138723865533e-13      -3.922121453765e-12       0.000000000000e+00       5.884750221624e-12       2.421217886106e-12      -7.090107815929e-15 
  104       4.434310259148e-10       1.158236975821e-13      -4.019086350845e-12       0.000000000000e+00       5.729317124212e-12       2.369119878416e-12      -7.048427313478e-15 
  105       4.486058658803e-10       1.177459398159e-13      -4.115754518758e-12       0.000000000000e+00       5.578564709955e-12       2.318297892082e-12      -6.995469024734e-15 
  106       4.538042238884e-10       1.196372437535e-13      -4.212048340659e-12       0.000000000000e+00       5.432513421267e-12       2.268772348033e-12      -6.932196203878e-15 
  107       4.590256724273e-10       1.214957400431e-13      -4.307889395844e-12       0.000000000000e+00       5.291151289697e-12       2.220554323343e-12      -6.859670688498e-15 
