# dimensionless total lensed [l(l+1)/2pi] C_l's
# for l=2 to 2500, i.e. number of multipoles equal to 2499
#
# -> if you prefer output in CAMB/HealPix/LensPix units/order, set 'format' to 'camb' in input file
# -> if you don't want to see such a header, set 'headers' to 'no' in input file
# -> for CMB lensing (phi), these are C_l^phi-phi for the lensing potential.
#    Remember the conversion factors:
#    C_l^dd (deflection) = l(l+1) C_l^phi-phi
#    C_l^gg (shear/convergence) = 1/4 (l(l+1))^2 C_l^phi-phi
#
# 1:l     2:TT                     3:EE                     4:TE                     5:BB                     6:phiphi                 7:TPhi                   8:Ephi               
    2       1.694013723687e-10       1.010509585650e-14       4.767249488542e-13       1.194455594760e-19       6.239949464829e-09       5.157813340840e-10      -2.772712453231e-12 
    3       1.625782604939e-10       1.518541321162e-14       5.416905393453e-13       2.390219645149e-19       3.771833916067e-09       3.899935583262e-10      -2.261247363975e-12 
    4       1.538389700121e-10       1.530518080130e-14       5.296106985493e-13       3.986562851486e-19       2.586927496404e-09       3.091387484082e-10      -1.610136560049e-12 
    5       1.460278695603e-10       1.190318145600e-14       4.876208339027e-13       5.985108372051e-19       1.911369180608e-09       2.528692643232e-10      -1.001852661695e-12 
    6       1.396992338626e-10       7.615829097233e-15       4.367598464229e-13       8.387784582443e-19       1.481480062774e-09       2.115480980936e-10      -4.980617032101e-13 
    7       1.348461126707e-10       4.354136958994e-15       3.861931448758e-13       1.119676383172e-18       1.187211931764e-09       1.800318006261e-10      -1.223038392626e-13 
    8       1.312127712264e-10       2.656649622409e-15       3.388393887041e-13       1.441439444834e-18       9.752622568373e-10       1.553495110630e-10       1.247976873687e-13 
    9       1.286647458027e-10       2.085125746807e-15       2.957148035506e-13       1.804312862119e-18       8.171049259493e-10       1.356792438648e-10       2.575362481807e-13 
   10       1.270469415130e-10       1.938477407512e-15       2.575419940944e-13       2.208544892831e-18       6.957686836977e-10       1.197584970141e-10       2.994802513350e-13 
   11       1.261045013662e-10       1.754451366258e-15       2.252509394534e-13       2.654379632266e-18       5.905467003727e-10       1.070531177469e-10       2.778721200805e-13 
   12       1.257404127055e-10       1.427389059818e-15       1.995608603052e-13       3.142050230724e-18       5.147365974444e-10       9.608138616283e-11       2.211876737747e-13 
   13       1.258438683272e-10       1.063512780745e-15       1.805717997508e-13       3.671772784609e-18       4.526878026356e-10       8.666452369760e-11       1.512204979305e-13 
   14       1.263290635075e-10       7.881123403994e-16       1.680245383343e-13       4.243741126922e-18       4.011893902025e-10       7.872565397632e-11       8.564494493846e-14 
   15       1.270985630863e-10       6.449221945439e-16       1.613998262960e-13       4.858122705144e-18       3.579451023369e-10       7.194326155924e-11       3.507747614028e-14 
   16       1.280904708541e-10       6.038762660098e-16       1.598412608603e-13       5.515055689139e-18       3.212552797342e-10       6.596860799867e-11       3.772763346883e-15 
   17       1.293207916149e-10       6.165451463749e-16       1.621980829728e-13       6.214647400794e-18       2.898379602480e-10       6.062790155608e-11      -8.988688437767e-15 
   18       1.306832063049e-10       6.560627618136e-16       1.672218212138e-13       6.956973460151e-18       2.626158576564e-10       5.590535713640e-11      -7.362914039546e-15 
   19       1.321961515864e-10       7.240421021867e-16       1.739936715241e-13       7.742082125798e-18       2.391381631098e-10       5.177047495858e-11       3.522230438700e-15 
   20       1.338612626174e-10       8.270164280886e-16       1.814225338424e-13       8.569989662893e-18       2.184907834241e-10       4.806984843859e-11       1.699802240746e-14 
   21       1.356537882743e-10       9.617741888676e-16       1.889688364513e-13       9.440693319574e-18       2.003407246509e-10       4.474985790977e-11       2.882036866227e-14 
   22       1.375094135982e-10       1.119938439936e-15       1.962208290254e-13       1.035416584711e-17       1.842444241277e-10       4.174173568671e-11       3.551343522975e-14 
   23       1.394585048258e-10       1.294341673443e-15       2.030266551488e-13       1.131037113097e-17       1.699750739719e-10       3.904152112564e-11       3.628829227523e-14 
   24       1.415314226397e-10       1.479329749687e-15       2.093154476376e-13       1.230925867804e-17       1.571979352669e-10       3.662699816447e-11       3.166108974552e-14 
   25       1.437076584596e-10       1.681177358038e-15       2.150855270869e-13       1.335078206866e-17       1.457591351455e-10       3.444660668837e-11       2.324868149930e-14 
   26       1.459356220662e-10       1.909498363796e-15       2.203499297571e-13       1.443489221305e-17       1.354482673126e-10       3.242345663251e-11       1.337777474782e-14 
   27       1.482170151457e-10       2.165417439974e-15       2.250766055495e-13       1.556155363565e-17       1.261397975428e-10       3.055391653295e-11       4.144680693661e-15 
   28       1.505581937973e-10       2.447340185958e-15       2.291930295298e-13       1.673074015195e-17       1.176716056271e-10       2.884286633774e-11      -2.481854146385e-15 
   29       1.529663456533e-10       2.755329150869e-15       2.325371080766e-13       1.794245421267e-17       1.099987960482e-10       2.728387724458e-11      -6.064686286126e-15 
   30       1.554341455319e-10       3.089757353273e-15       2.348853206664e-13       1.919671562030e-17       1.030369931655e-10       2.585015703134e-11      -6.742001702423e-15 
   31       1.579429797288e-10       3.451045592815e-15       2.360019952432e-13       2.049356153144e-17       9.664195974660e-11       2.450392293205e-11      -4.907549732195e-15 
   32       1.604996801160e-10       3.840731300331e-15       2.357764327647e-13       2.183306058762e-17       9.077985467763e-11       2.324552533054e-11      -1.462115775591e-15 
   33       1.631107154137e-10       4.260808909638e-15       2.341358179551e-13       2.321530823766e-17       8.540879971380e-11       2.208050733548e-11       2.301291426761e-15 
   34       1.657741946408e-10       4.713115496038e-15       2.310250364113e-13       2.464042342620e-17       8.045308199025e-11       2.100680840487e-11       5.036187362171e-15 
   35       1.684899880829e-10       5.198112762276e-15       2.264589784829e-13       2.610854087218e-17       7.588672033370e-11       2.001776591959e-11       6.386230659219e-15 
   36       1.712511437853e-10       5.715656064343e-15       2.204907012791e-13       2.761982007520e-17       7.167234290547e-11       1.909865514357e-11       6.299618271425e-15 
   37       1.740458414781e-10       6.265647738153e-15       2.131718495590e-13       2.917443756784e-17       6.775428580006e-11       1.823109347933e-11       4.830847297771e-15 
   38       1.768770207193e-10       6.849254334933e-15       2.044584507096e-13       3.077254553145e-17       6.412202608572e-11       1.741382515012e-11       2.392305918323e-15 
   39       1.797479153441e-10       7.468087460222e-15       1.942741991528e-13       3.241430222472e-17       6.076373206076e-11       1.664791581364e-11      -4.017746768464e-16 
   40       1.826560188547e-10       8.123888188056e-15       1.825347955996e-13       3.409988465379e-17       5.764698613890e-11       1.593074815158e-11      -2.790564365151e-15 
   41       1.855959249291e-10       8.818255805653e-15       1.691529623054e-13       3.582946906725e-17       5.472999279046e-11       1.525738029806e-11      -4.063750614998e-15 
   42       1.885704267674e-10       9.551708732534e-15       1.540571118052e-13       3.760316183188e-17       5.200390013865e-11       1.462597979853e-11      -4.252658699661e-15 
   43       1.915820047088e-10       1.032433128198e-14       1.371775936089e-13       3.942104813600e-17       4.946123796387e-11       1.403357966922e-11      -3.648293177036e-15 
   44       1.946293221240e-10       1.113601544370e-14       1.184412205582e-13       4.128321060300e-17       4.708322346391e-11       1.347430591531e-11      -2.618950120403e-15 
   45       1.977092960276e-10       1.198655875083e-14       9.778832451518e-14       4.318971009093e-17       4.484640932834e-11       1.294142258565e-11      -1.543841835230e-15 
   46       2.008249259628e-10       1.287601936412e-14       7.523069164166e-14       4.514052171812e-17       4.274711617918e-11       1.243473071066e-11      -5.789607152219e-16 
   47       2.039791712404e-10       1.380444794762e-14       5.081045102457e-14       4.713557937114e-17       4.078277549076e-11       1.195499538300e-11       1.705911901984e-16 
   48       2.071724843737e-10       1.477178286373e-14       2.458491966134e-14       4.917479178360e-17       3.894456463392e-11       1.150177226859e-11       5.847918095661e-16 
   49       2.104025788551e-10       1.577784517428e-14      -3.372690334306e-15       5.125804124176e-17       3.721694266276e-11       1.107331154723e-11       5.279837504404e-16 
   50       2.136661076925e-10       1.682251436661e-14      -3.299704263914e-14       5.338518022041e-17       3.558230010639e-11       1.066720399568e-11      -9.908387249823e-17 
   51       2.169647749112e-10       1.790632336140e-14      -6.431123684836e-14       5.555602321770e-17       3.403747325220e-11       1.028274884090e-11      -1.184817074636e-15 
   52       2.203004815374e-10       1.903001637218e-14      -9.736689303521e-14       5.777035046635e-17       3.258091005708e-11       9.919062589339e-12      -2.535102480570e-15 
   53       2.236734208973e-10       2.019438571908e-14      -1.322220189972e-13       6.002790845070e-17       3.120772967580e-11       9.574333374733e-12      -3.920200626006e-15 
   54       2.270819363121e-10       2.140027533466e-14      -1.689414549614e-13       6.232840851476e-17       2.990949890688e-11       9.245759823106e-12      -5.072978568355e-15 
   55       2.305237689594e-10       2.264835925284e-14      -2.075862419649e-13       6.467155379066e-17       2.867678308227e-11       8.930381867382e-12      -5.758268692668e-15 
   56       2.340004904822e-10       2.393840460443e-14      -2.481776153818e-13       6.705713100600e-17       2.750805295591e-11       8.627954937440e-12      -6.005171165026e-15 
   57       2.375139222765e-10       2.526983167463e-14      -2.907248455512e-13       6.948493904546e-17       2.640259890484e-11       8.338682697823e-12      -5.929364674327e-15 
   58       2.410647555751e-10       2.664191773245e-14      -3.352355432895e-13       7.195476234651e-17       2.535783739939e-11       8.062361845923e-12      -5.668018254713e-15 
   59       2.446524633054e-10       2.805379176971e-14      -3.817156730507e-13       7.446637061093e-17       2.436919554421e-11       7.798355728264e-12      -5.380795046648e-15 
   60       2.482752119458e-10       2.950442923994e-14      -4.301695660859e-13       7.701951851634e-17       2.342999561940e-11       7.545567956792e-12      -5.250856057983e-15 
   61       2.519309532070e-10       3.099284827943e-14      -4.805975800023e-13       7.961398712491e-17       2.253329656456e-11       7.302806382131e-12      -5.439809937963e-15 
   62       2.556211848248e-10       3.251876173993e-14      -5.329884337778e-13       8.224971962339e-17       2.167816264573e-11       7.070030169489e-12      -5.938475042761e-15 
   63       2.593478813478e-10       3.408206284191e-14      -5.873251677810e-13       8.492671567815e-17       2.086460337765e-11       6.847337097870e-12      -6.684248056539e-15 
   64       2.631123390989e-10       3.568263771674e-14      -6.435872852552e-13       8.764499344058e-17       2.009168843364e-11       6.634584183009e-12      -7.603753610737e-15 
   65       2.669151254670e-10       3.732036653847e-14      -7.017506908003e-13       9.040459058161e-17       1.935749427895e-11       6.431373679392e-12      -8.612386786968e-15 
   66       2.707560281992e-10       3.899512465569e-14      -7.617876288554e-13       9.320556532629e-17       1.865905080417e-11       6.237039082275e-12      -9.613855619898e-15 
   67       2.746340046921e-10       4.070678372340e-14      -8.236666221808e-13       9.604799748827e-17       1.799228795863e-11       6.050631129704e-12      -1.049972360014e-14 
   68       2.785478894484e-10       4.245500265282e-14      -8.873538032744e-13       9.893198560064e-17       1.735311463164e-11       5.871185805124e-12      -1.117345897567e-14 
   69       2.824987962516e-10       4.423854874276e-14      -9.528173594053e-13       1.018576353207e-16       1.674102844073e-11       5.698622694264e-12      -1.162926395572e-14 
   70       2.864881138769e-10       4.605584039288e-14      -1.020023881886e-12       1.048250705232e-16       1.615614487218e-11       5.533004348796e-12      -1.188846990043e-14 
   71       2.905167602380e-10       4.790514094716e-14      -1.088937027402e-12       1.078344379146e-16       1.559810577916e-11       5.374263727702e-12      -1.197661003533e-14 
   72       2.945851510696e-10       4.978455445018e-14      -1.159517492119e-12       1.108859079672e-16       1.506605497291e-11       5.222197411591e-12      -1.192358872653e-14 
   73       2.986931686090e-10       5.169202140354e-14      -1.231722985788e-12       1.139796758541e-16       1.455861381386e-11       5.076458817001e-12      -1.176385075597e-14 
   74       3.028401302790e-10       5.362531452215e-14      -1.305508205856e-12       1.171159623841e-16       1.407385680277e-11       4.936551410716e-12      -1.153655059667e-14 
   75       3.070247573698e-10       5.558203449058e-14      -1.380824811570e-12       1.202950149359e-16       1.360928717183e-11       4.801821924069e-12      -1.128572168792e-14 
   76       3.112457192461e-10       5.755990662018e-14      -1.457625143896e-12       1.235170585720e-16       1.316245189686e-11       4.671627921659e-12      -1.105110359403e-14 
   77       3.155034497675e-10       5.955774265513e-14      -1.535874225639e-12       1.267821370199e-16       1.273297016626e-11       4.545890785049e-12      -1.083831816868e-14 
   78       3.197986067418e-10       6.157464746138e-14      -1.615539912731e-12       1.300902442563e-16       1.232083218574e-11       4.424631708582e-12      -1.064353714177e-14 
   79       3.241315065851e-10       6.360973558078e-14      -1.696589392638e-12       1.334413716706e-16       1.192578145844e-11       4.307803132352e-12      -1.046231983159e-14 
   80       3.285021048056e-10       6.566213315763e-14      -1.778989235287e-12       1.368355079777e-16       1.154730348788e-11       4.195285531790e-12      -1.028959085235e-14 
   81       3.329099764872e-10       6.773097986526e-14      -1.862705443978e-12       1.402726391311e-16       1.118461448098e-11       4.086884207256e-12      -1.011961782176e-14 
   82       3.373542967737e-10       6.981543083260e-14      -1.947703506305e-12       1.437527482362e-16       1.083665005099e-11       3.982326073622e-12      -9.945989068566e-15 
   83       3.418338213526e-10       7.191465857068e-14      -2.033948445072e-12       1.472758154630e-16       1.050205392055e-11       3.881256449863e-12      -9.761591340160e-15 
   84       3.463473426690e-10       7.402767650054e-14      -2.121400704070e-12       1.508418243504e-16       1.017950451887e-11       3.783330534831e-12      -9.560580566961e-15 
   85       3.508951882169e-10       7.615277170288e-14      -2.210002910201e-12       1.544507821093e-16       9.868781728481e-12       3.688512290860e-12      -9.344718370480e-15 
   86       3.554779360057e-10       7.828798122532e-14      -2.299690999948e-12       1.581027025413e-16       9.569857092226e-12       3.596819452973e-12      -9.118050026106e-15 
   87       3.600959495637e-10       8.043126106410e-14      -2.390398170589e-12       1.617975999674e-16       9.282566107127e-12       3.508231652952e-12      -8.885015843193e-15 
   88       3.647493664171e-10       8.258048509235e-14      -2.482054861116e-12       1.655354892485e-16       9.006602606253e-12       3.422688800286e-12      -8.650462369379e-15 
   89       3.694380865697e-10       8.473344398830e-14      -2.574588733153e-12       1.693163858060e-16       8.741513140598e-12       3.340089463128e-12      -8.419653594900e-15 
   90       3.741617609817e-10       8.688784416360e-14      -2.667924651863e-12       1.731403056418e-16       8.486691360957e-12       3.260289249242e-12      -8.198282156910e-15 
   91       3.789197800495e-10       8.904130669155e-14      -2.761984666873e-12       1.770072653593e-16       8.241372399806e-12       3.183099186961e-12      -7.992480543799e-15 
   92       3.837112620848e-10       9.119136623532e-14      -2.856687993186e-12       1.809172821838e-16       8.004627253170e-12       3.108284106136e-12      -7.808832299507e-15 
   93       3.885353102058e-10       9.333560140411e-14      -2.951954338464e-12       1.848704327351e-16       7.775581152913e-12       3.035620810543e-12      -7.652832733130e-15 
   94       3.933918522300e-10       9.547205057612e-14      -3.047714498787e-12       1.888670394145e-16       7.554118455795e-12       2.965086119894e-12      -7.523981887311e-15 
   95       3.982809063888e-10       9.759885692476e-14      -3.143901328627e-12       1.929075122188e-16       7.340273875723e-12       2.896694247496e-12      -7.419970833569e-15 
   96       4.032023164392e-10       9.971414328587e-14      -3.240446562965e-12       1.969922933016e-16       7.134015430166e-12       2.830438741136e-12      -7.338156464164e-15 
   97       4.081557438282e-10       1.018160128900e-13      -3.337280844138e-12       2.011218578000e-16       6.935241896708e-12       2.766291684783e-12      -7.275551413033e-15 
   98       4.131406598564e-10       1.039025500948e-13      -3.434333748691e-12       2.052967146617e-16       6.743780269608e-12       2.704202900285e-12      -7.228813976716e-15 
   99       4.181563378417e-10       1.059718211172e-13      -3.531533814229e-12       2.095174074723e-16       6.559383216351e-12       2.644099149070e-12      -7.194238035291e-15 
  100       4.232018452832e-10       1.080218747662e-13      -3.628808566264e-12       2.137845152817e-16       6.381726534209e-12       2.585883333845e-12      -7.167742973301e-15 
  101       4.282760360246e-10       1.100507431745e-13      -3.726084545072e-12       2.180986534312e-16       6.210406606793e-12       2.529433700301e-12      -7.144863600687e-15 
  102       4.333775424186e-10       1.120564425316e-13      -3.823287332536e-12       2.224604743808e-16       6.044937860611e-12       2.474603038805e-12      -7.120740073721e-15 
  103       4.385047674902e-10       1.140369738157e-13      -3.920341579002e-12       2.268706685359e-16       5.884750221624e-12       2.421217886106e-12      -7.090107815929e-15 
  104       4.436561833966e-10       1.159903501568e-13      -4.017171079915e-12       2.313298978634e-16       5.729317124212e-12       2.369119878416e-12      -7.048427313478e-15 
  105       4.488312896017e-10       1.179146815578e-13      -4.113698959686e-12       2.358385847459e-16       5.578564709955e-12       2.318297892082e-12      -6.995469024734e-15 
  106       4.540297701305e-10       1.198081030368e-13      -4.209847562837e-12       2.403970960138e-16       5.432513421267e-12       2.268772348033e-12      -6.932196203878e-15 
  107       4.592511944152e-10       1.216687500308e-13      -4.305538433496e-12       2.450058076964e-16       5.291151289697e-12       2.220554323343e-12      -6.859670688498e-15 
