# Matter power spectrum P(k) at redshift z=0
# for k=1.12887e-05 to 1.59672 h/Mpc,
# number of wavenumbers equal to 617
#    1:k (h/Mpc)              2:P (Mpc/h)^3        
       1.128869609770e-05       4.020916259544e+01 
       2.441301252321e-05       8.467251097430e+01 
       3.758701660717e-05       1.284360104673e+02 
       5.084751483279e-05       1.719421633318e+02 
       6.423196171367e-05       2.154523103507e+02 
       7.777880645424e-05       2.591668886292e+02 
       9.152785132164e-05       3.032600454739e+02 
       1.055206266529e-04       3.478941343134e+02 
       1.198007874592e-04       3.932272963684e+02 
       1.344145366210e-04       4.394181335343e+02 
       1.494110796653e-04       4.866290615505e+02 
       1.648431160204e-04       5.350289612623e+02 
       1.807673713995e-04       5.847955206773e+02 
       1.972451754668e-04       6.361174025513e+02 
       2.143430880733e-04       6.891963642486e+02 
       2.321335759426e-04       7.442493593018e+02 
       2.506957395246e-04       8.015107055361e+02 
       2.701160865320e-04       8.612342350880e+02 
       2.904893440969e-04       9.236954923662e+02 
       3.119192950990e-04       9.891938779728e+02 
       3.345196155764e-04       1.058054691904e+03 
       3.584146787401e-04       1.130630957827e+03 
       3.837402765663e-04       1.207304858920e+03 
       4.106441920479e-04       1.288488591349e+03 
       4.392865341700e-04       1.374624374494e+03 
       4.698397245685e-04       1.466183229591e+03 
       5.024880018190e-04       1.563662233544e+03 
       5.374262902771e-04       1.667579716543e+03 
       5.748582712544e-04       1.778468037120e+03 
       6.149935030669e-04       1.896863525058e+03 
       6.580434725079e-04       2.023293331815e+03 
       7.042165324566e-04       2.158259239767e+03 
       7.537117937380e-04       2.302218767736e+03 
       8.067121908383e-04       2.455564337536e+03 
       8.633771148523e-04       2.618601976595e+03 
       9.238351726246e-04       2.791531069131e+03 
       9.881777465887e-04       2.974427497730e+03 
       1.056454052195e-03       3.167231922609e+03 
       1.128668290242e-03       3.369744930441e+03 
       1.204779270485e-03       3.581630060371e+03 
       1.284702577326e-03       3.802424392176e+03 
       1.368315023117e-03       4.031556027112e+03 
       1.455460862544e-03       4.268366232840e+03 
       1.545959078291e-03       4.512134340800e+03 
       1.639611015466e-03       4.762102605093e+03 
       1.736207725359e-03       5.017499513724e+03 
       1.835536538107e-03       5.277557279984e+03 
       1.937386571193e-03       5.541509948833e+03 
       2.041553056316e-03       5.808672641942e+03 
       2.147840505898e-03       6.078379637428e+03 
       2.256064833426e-03       6.350013242930e+03 
       2.366054591539e-03       6.623006647233e+03 
       2.477651507458e-03       6.896843893877e+03 
       2.590710487995e-03       7.171058860763e+03 
       2.705099245813e-03       7.445233059065e+03 
       2.820697672514e-03       7.718992148449e+03 
       2.937397057462e-03       7.992003103867e+03 
       3.055099226938e-03       8.263970994115e+03 
       3.173715657576e-03       8.534634138318e+03 
       3.293166601459e-03       8.803763330391e+03 
       3.413380247341e-03       9.071155694563e+03 
       3.534291932925e-03       9.336633938036e+03 
       3.655843416152e-03       9.600043001158e+03 
       3.777982208606e-03       9.861247164994e+03 
       3.900660970862e-03       1.012012788836e+04 
       4.023836967509e-03       1.037658437973e+04 
       4.147471578271e-03       1.063052735430e+04 
       4.271529861027e-03       1.088187973047e+04 
       4.395980162193e-03       1.113057761736e+04 
       4.520793769979e-03       1.137656400173e+04 
       4.645944606143e-03       1.161979414721e+04 
       4.771408952179e-03       1.186022769959e+04 
       4.897165206133e-03       1.209783243186e+04 
       5.023193666637e-03       1.233258303731e+04 
       5.149476341031e-03       1.256445619032e+04 
       5.275996774818e-03       1.279345492440e+04 
       5.402739899958e-03       1.301953620649e+04 
       5.529691899813e-03       1.324269722552e+04 
       5.656840088802e-03       1.346295746469e+04 
       5.784172805054e-03       1.368032954998e+04 
       5.911679314533e-03       1.389477929061e+04 
       6.039349725337e-03       1.410630530206e+04 
       6.167174910972e-03       1.431460653058e+04 
       6.295146441587e-03       1.452033236810e+04 
       6.423256522272e-03       1.472319101023e+04 
       6.551497937610e-03       1.492315820217e+04 
       6.679864001797e-03       1.512015726692e+04 
       6.808348513706e-03       1.531444439288e+04 
       6.936945716355e-03       1.550595436414e+04 
       7.065650260303e-03       1.569454784763e+04 
       7.194457170552e-03       1.588022364300e+04 
       7.323361816571e-03       1.606323356199e+04 
       7.452359885138e-03       1.624354059248e+04 
       7.581447355675e-03       1.642124632951e+04 
       7.710620477844e-03       1.659609837996e+04 
       7.839875751164e-03       1.676825608728e+04 
       7.969209906444e-03       1.693766901983e+04 
       8.098619888851e-03       1.710483059826e+04 
       8.228102842459e-03       1.726918730278e+04 
       8.357656096125e-03       1.743068520950e+04 
       8.487277150567e-03       1.758971682257e+04 
       8.616963666537e-03       1.774591157545e+04 
       8.746713453974e-03       1.790000938846e+04 
       8.876524462050e-03       1.805112057280e+04 
       9.006394770037e-03       1.820012091881e+04 
       9.136322578898e-03       1.834634960893e+04 
       9.266306203562e-03       1.849105874994e+04 
       9.396344065803e-03       1.863253205193e+04 
       9.526434687678e-03       1.877160343948e+04 
       9.656576685477e-03       1.890827277078e+04 
       9.786768764131e-03       1.904261362299e+04 
       9.917009712057e-03       1.917390046467e+04 
       1.004729839638e-02       1.930332817731e+04 
       1.017763375854e-02       1.943068978929e+04 
       1.030801481015e-02       1.955578774679e+04 
       1.043844062929e-02       1.967852979993e+04 
       1.056891035694e-02       1.979981314197e+04 
       1.069942319374e-02       1.991738254283e+04 
       1.082997839701e-02       2.003413594561e+04 
       1.096057527787e-02       2.014740741418e+04 
       1.109121319874e-02       2.025902013318e+04 
       1.122189157083e-02       2.036946381498e+04 
       1.135260985196e-02       2.047696265997e+04 
       1.148336754444e-02       2.058242802010e+04 
       1.161416419317e-02       2.068573940764e+04 
       1.174499938378e-02       2.078601892731e+04 
       1.187587274099e-02       2.088629785543e+04 
       1.200678392706e-02       2.098354146093e+04 
       1.213773264030e-02       2.107825876590e+04 
       1.226871861378e-02       2.117209958738e+04 
       1.239974161402e-02       2.126249107479e+04 
       1.253080143987e-02       2.135233688031e+04 
       1.266189792141e-02       2.143975568434e+04 
       1.279303091893e-02       2.152532664433e+04 
       1.292420032204e-02       2.160901993343e+04 
       1.305540604878e-02       2.169137031115e+04 
       1.318664804482e-02       2.177076886680e+04 
       1.331792628273e-02       2.184952467161e+04 
       1.344924076130e-02       2.192532818224e+04 
       1.358059150491e-02       2.200061687343e+04 
       1.371197856293e-02       2.207337192664e+04 
       1.384340200921e-02       2.214379922736e+04 
       1.397486194158e-02       2.221351505587e+04 
       1.410635848142e-02       2.228150824044e+04 
       1.423789177324e-02       2.234744771111e+04 
       1.436946198431e-02       2.241167228873e+04 
       1.450106930434e-02       2.247443635267e+04 
       1.463271394515e-02       2.253547922106e+04 
       1.476439614047e-02       2.259383536697e+04 
       1.489611614564e-02       2.265236560670e+04 
       1.502787423742e-02       2.270852748547e+04 
       1.515967071385e-02       2.276248968101e+04 
       1.529150589406e-02       2.281551759464e+04 
       1.542338011816e-02       2.286698217573e+04 
       1.555529374714e-02       2.291694949669e+04 
       1.568724716282e-02       2.296560168249e+04 
       1.581924076776e-02       2.301247138268e+04 
       1.595127498525e-02       2.305801605956e+04 
       1.608335025931e-02       2.310264280324e+04 
       1.621546705471e-02       2.314479644521e+04 
       1.634762585699e-02       2.318660246317e+04 
       1.647982717250e-02       2.322608535988e+04 
       1.661207152852e-02       2.326419695993e+04 
       1.674435947333e-02       2.330169957260e+04 
       1.687669157631e-02       2.333693772584e+04 
       1.700906842809e-02       2.337127458759e+04 
       1.714149064070e-02       2.340461877748e+04 
       1.727395884771e-02       2.343584834009e+04 
       1.740647370446e-02       2.346609192822e+04 
       1.753903588821e-02       2.349578045308e+04 
       1.767164609842e-02       2.352301175469e+04 
       1.780430505691e-02       2.355029963526e+04 
       1.793701350817e-02       2.357482513054e+04 
       1.806977221963e-02       2.359901057123e+04 
       1.820258198189e-02       2.362196053569e+04 
       1.833544360910e-02       2.364366465919e+04 
       1.846835793922e-02       2.366397712236e+04 
       1.860132583438e-02       2.368314278686e+04 
       1.873434818121e-02       2.370172633261e+04 
       1.886742589128e-02       2.371838165990e+04 
       1.900055990138e-02       2.373418351405e+04 
       1.913375117402e-02       2.374899549441e+04 
       1.926700069780e-02       2.376265100462e+04 
       1.940030948785e-02       2.377517782542e+04 
       1.953367858631e-02       2.378664350585e+04 
       1.966710906278e-02       2.379705517551e+04 
       1.980060201485e-02       2.380644963614e+04 
       1.993415856855e-02       2.381480828878e+04 
       2.006777987895e-02       2.382205212202e+04 
       2.020146713065e-02       2.382844782339e+04 
       2.033522153837e-02       2.383367935520e+04 
       2.046904434757e-02       2.383797780574e+04 
       2.060293683499e-02       2.384158062800e+04 
       2.073690030935e-02       2.384386420163e+04 
       2.087093611196e-02       2.384528105533e+04 
       2.100504561738e-02       2.384559300882e+04 
       2.113923023416e-02       2.384511576883e+04 
       2.127349140550e-02       2.384374334001e+04 
       2.140783061006e-02       2.384154371499e+04 
       2.154224936264e-02       2.383841490862e+04 
       2.167674921502e-02       2.383442244493e+04 
       2.181133175678e-02       2.382955499859e+04 
       2.194599861611e-02       2.382372124236e+04 
       2.208075146066e-02       2.381725454768e+04 
       2.221559199850e-02       2.380979662981e+04 
       2.235052197895e-02       2.380201628745e+04 
       2.248554319361e-02       2.379258913907e+04 
       2.262065747727e-02       2.378273432712e+04 
       2.275586670898e-02       2.377265537858e+04 
       2.289117281305e-02       2.376106050075e+04 
       2.302657776011e-02       2.374896266774e+04 
       2.316208356826e-02       2.373573657718e+04 
       2.329769230419e-02       2.372240958099e+04 
       2.343340608434e-02       2.370768707087e+04 
       2.356922707614e-02       2.369257589677e+04 
       2.370515749924e-02       2.367681951823e+04 
       2.384119962680e-02       2.366058118027e+04 
       2.397735578684e-02       2.364313728604e+04 
       2.411362836360e-02       2.362532727999e+04 
       2.425001979895e-02       2.360698693111e+04 
       2.438653259385e-02       2.358788278983e+04 
       2.452316930990e-02       2.356769208269e+04 
       2.465993257083e-02       2.354739773162e+04 
       2.479682506414e-02       2.352611229182e+04 
       2.493384954276e-02       2.350437897432e+04 
       2.507100882677e-02       2.348201525730e+04 
       2.520830580515e-02       2.345908805736e+04 
       2.534574343758e-02       2.343568026638e+04 
       2.548332475639e-02       2.341152666862e+04 
       2.562105286847e-02       2.338666951270e+04 
       2.575893095726e-02       2.336138254498e+04 
       2.589696228486e-02       2.333585838122e+04 
       2.603515019419e-02       2.330934288449e+04 
       2.617349811117e-02       2.328238742881e+04 
       2.631200954705e-02       2.325494789958e+04 
       2.645068810077e-02       2.322698605120e+04 
       2.658953746141e-02       2.319844092128e+04 
       2.672856141076e-02       2.316952353519e+04 
       2.686776382590e-02       2.314000063234e+04 
       2.700714868199e-02       2.310988373202e+04 
       2.714672005500e-02       2.307944225460e+04 
       2.728648212471e-02       2.304861316602e+04 
       2.742643917767e-02       2.301707917320e+04 
       2.756659561037e-02       2.298532046938e+04 
       2.770695593244e-02       2.295307110265e+04 
       2.784752477006e-02       2.292026637683e+04 
       2.798830686938e-02       2.288709658819e+04 
       2.812930710019e-02       2.285346179976e+04 
       2.827053045963e-02       2.281940962921e+04 
       2.841198207609e-02       2.278498974059e+04 
       2.855366721320e-02       2.275000441926e+04 
       2.869559127410e-02       2.271474549525e+04 
       2.883775980568e-02       2.267920249811e+04 
       2.898017850316e-02       2.264306332503e+04 
       2.912285321476e-02       2.260675122360e+04 
       2.926578994656e-02       2.256994753763e+04 
       2.940899486755e-02       2.253267140303e+04 
       2.955247431491e-02       2.249511832436e+04 
       2.969623479949e-02       2.245749037118e+04 
       2.984028301147e-02       2.241904580064e+04 
       2.998462582631e-02       2.238045767792e+04 
       3.012927031090e-02       2.234151416299e+04 
       3.027422372998e-02       2.230228106866e+04 
       3.041949355287e-02       2.226268961929e+04 
       3.056508746036e-02       2.222285636769e+04 
       3.071101335206e-02       2.218262788646e+04 
       3.085727935391e-02       2.214225715268e+04 
       3.100389382612e-02       2.210130713113e+04 
       3.115086537141e-02       2.206020320051e+04 
       3.129820284358e-02       2.201887089468e+04 
       3.144591535656e-02       2.197705175948e+04 
       3.159401229375e-02       2.193509002911e+04 
       3.174250331785e-02       2.189281349531e+04 
       3.189139838112e-02       2.185026625719e+04 
       3.204070773608e-02       2.180746244639e+04 
       3.219044194680e-02       2.176437508541e+04 
       3.234061190055e-02       2.172109664422e+04 
       3.249122882021e-02       2.167741429045e+04 
       3.264230427708e-02       2.163362228432e+04 
       3.279385020442e-02       2.158938424287e+04 
       3.294587891161e-02       2.154513985460e+04 
       3.309840309900e-02       2.150041882182e+04 
       3.325143587351e-02       2.145555805161e+04 
       3.340499076500e-02       2.141043107361e+04 
       3.355908174347e-02       2.136512680017e+04 
       3.371372323713e-02       2.131954413496e+04 
       3.386893015141e-02       2.127374958222e+04 
       3.402471788894e-02       2.122779544709e+04 
       3.418110237061e-02       2.118145157761e+04 
       3.433810005775e-02       2.113503582611e+04 
       3.449572797544e-02       2.108832129109e+04 
       3.465400373717e-02       2.104145411766e+04 
       3.481294557078e-02       2.099421298310e+04 
       3.497257234591e-02       2.094682097854e+04 
       3.513290360290e-02       2.089924730843e+04 
       3.529395958343e-02       2.085147103847e+04 
       3.545576126281e-02       2.080353014544e+04 
       3.561833038423e-02       2.075532522039e+04 
       3.578168949500e-02       2.070688922124e+04 
       3.594586198487e-02       2.065819495859e+04 
       3.611087212674e-02       2.060933401610e+04 
       3.627674511981e-02       2.056026870104e+04 
       3.644350713535e-02       2.051114979449e+04 
       3.661118536537e-02       2.046162481234e+04 
       3.677980807431e-02       2.041193194093e+04 
       3.694940465406e-02       2.036189831240e+04 
       3.712000568249e-02       2.031189599803e+04 
       3.729164298586e-02       2.026153758081e+04 
       3.746434970528e-02       2.021101321629e+04 
       3.763816036773e-02       2.016026158018e+04 
       3.781311096183e-02       2.010915162565e+04 
       3.798923901883e-02       2.005805054618e+04 
       3.816658369928e-02       2.000657359594e+04 
       3.834518588581e-02       1.995491109568e+04 
       3.852508828257e-02       1.990308541867e+04 
       3.870633552187e-02       1.985094470731e+04 
       3.888897427872e-02       1.979848001466e+04 
       3.907305339393e-02       1.974584741566e+04 
       3.925862400648e-02       1.969310266835e+04 
       3.944573969620e-02       1.964005250176e+04 
       3.963445663745e-02       1.958658360823e+04 
       3.982483376514e-02       1.953297410574e+04 
       4.001693295396e-02       1.947898460599e+04 
       4.021081921239e-02       1.942499796526e+04 
       4.040656089278e-02       1.937046561253e+04 
       4.060422991909e-02       1.931576732217e+04 
       4.080390203428e-02       1.926072165548e+04 
       4.100565706917e-02       1.920525201428e+04 
       4.120957923515e-02       1.914965390799e+04 
       4.141575744327e-02       1.909365251139e+04 
       4.162428565261e-02       1.903716569847e+04 
       4.183526325106e-02       1.898046188156e+04 
       4.204879547239e-02       1.892340102002e+04 
       4.226499385344e-02       1.886602089291e+04 
       4.248397673654e-02       1.880803606798e+04 
       4.270586982207e-02       1.874992646954e+04 
       4.293080677764e-02       1.869114341307e+04 
       4.315892991067e-02       1.863200764086e+04 
       4.339039091230e-02       1.857240330459e+04 
       4.362535168203e-02       1.851242360306e+04 
       4.386398524334e-02       1.845187889068e+04 
       4.410647676265e-02       1.839058529456e+04 
       4.435302468568e-02       1.832890446797e+04 
       4.460384200738e-02       1.826667578392e+04 
       4.485915769461e-02       1.820393072937e+04 
       4.511921828359e-02       1.814018589330e+04 
       4.538428967814e-02       1.807595148770e+04 
       4.565465917904e-02       1.801100548858e+04 
       4.593063778050e-02       1.794530731038e+04 
       4.621256277599e-02       1.787876869771e+04 
       4.650080072378e-02       1.781159331089e+04 
       4.679575083194e-02       1.774334493733e+04 
       4.709784883434e-02       1.767393002121e+04 
       4.740757144320e-02       1.760380590312e+04 
       4.772544148158e-02       1.753233851276e+04 
       4.805203382032e-02       1.745991037351e+04 
       4.838798227099e-02       1.738602546344e+04 
       4.873398761921e-02       1.731099946114e+04 
       4.909082702451e-02       1.723433602629e+04 
       4.945936506417e-02       1.715623473512e+04 
       4.984056676441e-02       1.707642613786e+04 
       5.023551304404e-02       1.699461587954e+04 
       5.064541910071e-02       1.691105311448e+04 
       5.107165640214e-02       1.682500197353e+04 
       5.151577911417e-02       1.673686527844e+04 
       5.197955601269e-02       1.664597566023e+04 
       5.246500920130e-02       1.655213336534e+04 
       5.297446130505e-02       1.645524899939e+04 
       5.351059325009e-02       1.635482981465e+04 
       5.407651528597e-02       1.625008365772e+04 
       5.467585457121e-02       1.614115288263e+04 
       5.531286341570e-02       1.602701735464e+04 
       5.599255310079e-02       1.590659842316e+04 
       5.672085892584e-02       1.578009690291e+04 
       5.750484239921e-02       1.564617068660e+04 
       5.835293553533e-02       1.550280855058e+04 
       5.927522849681e-02       1.534926697782e+04 
       6.028379238887e-02       1.518316737643e+04 
       6.139300860237e-02       1.500274854552e+04 
       6.261983613315e-02       1.480452657743e+04 
       6.398387726024e-02       1.458500797977e+04 
