# total [l(l+1)/2pi] C_l's (units: [microK]^2)
# for l=2 to 3000, i.e. number of multipoles equal to 2999
#
# -> if you don't want to see such a header, set 'headers' to 'no' in input file
# -> for CMB lensing (d), these are C_l^dd for the deflection field.
#    Remember the conversion factors:
#    C_l^dd (deflection) = l(l+1) C_l^phi-phi
#    C_l^gg (shear/convergence) = 1/4 (l(l+1))^2 C_l^phi-phi
#
# 1:l     2:TT                     3:EE                     4:BB                     5:TE                     6:dd                     7:dT                     8:dE                 
    2       1.113368059447e+03       5.217874905458e-02       0.000000000000e+00       3.424178190077e+00       5.250571354475e-08       3.391743557437e-03      -1.633050454897e-05 
    3       1.044796494033e+03       8.519651413398e-02       0.000000000000e+00       4.348581829514e+00       6.517325783034e-08       3.376948061708e-03      -2.003476601054e-05 
    4       9.772411212215e+02       9.573680937802e-02       0.000000000000e+00       4.485437481532e+00       7.571876670062e-08       3.275495952102e-03      -2.025938461720e-05 
    5       9.246528158945e+02       8.494990969446e-02       0.000000000000e+00       4.151830700085e+00       8.484511906440e-08       3.148981947308e-03      -1.797360655182e-05 
    6       8.868018442114e+02       6.266428656096e-02       0.000000000000e+00       3.590152889546e+00       9.285098961374e-08       3.017174269972e-03      -1.403986866892e-05 
    7       8.610009705520e+02       3.968431516055e-02       0.000000000000e+00       2.966956271521e+00       9.997139513290e-08       2.886298751449e-03      -9.333742788590e-06 
    8       8.440368648775e+02       2.271539941773e-02       0.000000000000e+00       2.380794787604e+00       1.063217113121e-07       2.759207798339e-03      -4.648355384621e-06 
    9       8.341938680818e+02       1.333163512601e-02       0.000000000000e+00       1.885435577213e+00       1.120007868064e-07       2.638862799823e-03      -6.219887692620e-07 
   10       8.298485175582e+02       9.619132064887e-03       0.000000000000e+00       1.504970657601e+00       1.170974782193e-07       2.526490352043e-03       2.319878303165e-06 
   11       8.292189877765e+02       8.623331156704e-03       0.000000000000e+00       1.244557508297e+00       1.185533193099e-07       2.428023644714e-03       3.965294581558e-06 
   12       8.318419354882e+02       8.143346210831e-03       0.000000000000e+00       1.095033287755e+00       1.224778498853e-07       2.327792787310e-03       4.401182291879e-06 
   13       8.368189286365e+02       7.326595259318e-03       0.000000000000e+00       1.036671124225e+00       1.259963824400e-07       2.233119301769e-03       3.800065249460e-06 
   14       8.435792512277e+02       6.318312800347e-03       0.000000000000e+00       1.045438432781e+00       1.291517326129e-07       2.146427956983e-03       2.484536089731e-06 
   15       8.519480128506e+02       5.574573276975e-03       0.000000000000e+00       1.097086289037e+00       1.319838248230e-07       2.068334271943e-03       8.211645808085e-07 
   16       8.613051978444e+02       5.353865886207e-03       0.000000000000e+00       1.170270048228e+00       1.345260151076e-07       1.996024866124e-03      -8.454457628346e-07 
   17       8.720280365286e+02       5.582948400056e-03       0.000000000000e+00       1.248502813257e+00       1.368059749063e-07       1.924216657279e-03      -2.242530017663e-06 
   18       8.834697628286e+02       5.986980903417e-03       0.000000000000e+00       1.320589009624e+00       1.387945268674e-07       1.856852531014e-03      -3.175184971379e-06 
   19       8.956106511335e+02       6.408411302981e-03       0.000000000000e+00       1.382376417705e+00       1.406732955653e-07       1.795210005042e-03      -3.568212715787e-06 
   20       9.083448695783e+02       6.747391412242e-03       0.000000000000e+00       1.432140344353e+00       1.422935770086e-07       1.733651726036e-03      -3.459045777073e-06 
   21       9.216768757607e+02       7.107874719507e-03       0.000000000000e+00       1.472280327919e+00       1.437494037561e-07       1.674337153771e-03      -2.946033375883e-06 
   22       9.354212846293e+02       7.670688879536e-03       0.000000000000e+00       1.507342480639e+00       1.450138590193e-07       1.620064247468e-03      -2.211157660577e-06 
   23       9.496234273926e+02       8.518091165911e-03       0.000000000000e+00       1.541382892249e+00       1.461621966762e-07       1.570623391576e-03      -1.409307098808e-06 
   24       9.642299976113e+02       9.686139981453e-03       0.000000000000e+00       1.578442424546e+00       1.471425379130e-07       1.522649806772e-03      -7.104915657898e-07 
   25       9.791760713689e+02       1.113657209748e-02       0.000000000000e+00       1.620650538734e+00       1.480134953140e-07       1.475293830234e-03      -2.268232162732e-07 
   26       9.942990956582e+02       1.280268223027e-02       0.000000000000e+00       1.669010374223e+00       1.487520279177e-07       1.427849526583e-03      -3.718889626729e-08 
   27       1.009660634778e+03       1.466682533796e-02       0.000000000000e+00       1.722184458978e+00       1.493873966883e-07       1.382652510233e-03      -1.302923510138e-07 
   28       1.025314014722e+03       1.672358366431e-02       0.000000000000e+00       1.777508498718e+00       1.498810834306e-07       1.342283086362e-03      -4.392336342378e-07 
   29       1.041304372849e+03       1.896893139660e-02       0.000000000000e+00       1.831859768488e+00       1.503116694275e-07       1.306749241340e-03      -8.967737770858e-07 
   30       1.057575244669e+03       2.139651795161e-02       0.000000000000e+00       1.881225094103e+00       1.507008159649e-07       1.273660208747e-03      -1.405021046897e-06 
   31       1.073995864215e+03       2.399757992108e-02       0.000000000000e+00       1.921266345924e+00       1.509621364946e-07       1.239505306525e-03      -1.842252888342e-06 
   32       1.090613667700e+03       2.676641927974e-02       0.000000000000e+00       1.950041260694e+00       1.511438137843e-07       1.204747067039e-03      -2.151161319032e-06 
   33       1.107477558553e+03       2.969668315438e-02       0.000000000000e+00       1.966271064092e+00       1.512766351159e-07       1.171040658041e-03      -2.292575096453e-06 
   34       1.124578901257e+03       3.278676621723e-02       0.000000000000e+00       1.968949502552e+00       1.513219343492e-07       1.139700515496e-03      -2.237787034747e-06 
   35       1.141905695125e+03       3.606394371653e-02       0.000000000000e+00       1.958422583332e+00       1.513140012390e-07       1.110748471031e-03      -2.017481486615e-06 
   36       1.159393686763e+03       3.956932632610e-02       0.000000000000e+00       1.935726807123e+00       1.512600422033e-07       1.083207165334e-03      -1.700984364307e-06 
   37       1.176953798635e+03       4.334317461275e-02       0.000000000000e+00       1.902149041693e+00       1.511179329079e-07       1.055724870376e-03      -1.372566193582e-06 
   38       1.194641346389e+03       4.739442082006e-02       0.000000000000e+00       1.858584639203e+00       1.509289065402e-07       1.028573397881e-03      -1.073072431437e-06 
   39       1.212534491989e+03       5.172117459643e-02       0.000000000000e+00       1.806002502126e+00       1.507314015339e-07       1.002429605003e-03      -8.348672538837e-07 
   40       1.230684599180e+03       5.631862103570e-02       0.000000000000e+00       1.745636414712e+00       1.505112254526e-07       9.778316240312e-04      -6.971371213802e-07 
   41       1.249111992163e+03       6.118115992031e-02       0.000000000000e+00       1.678496291100e+00       1.502179424934e-07       9.551094515427e-04      -6.939406507661e-07 
   42       1.267799755001e+03       6.631015282174e-02       0.000000000000e+00       1.603674474682e+00       1.498758191263e-07       9.342415693929e-04      -8.095357517622e-07 
   43       1.286692183594e+03       7.170835358342e-02       0.000000000000e+00       1.519513351616e+00       1.495121447325e-07       9.148584948695e-04      -1.002704924203e-06 
   44       1.305692049523e+03       7.737773948675e-02       0.000000000000e+00       1.424042266562e+00       1.491190352736e-07       8.962099121878e-04      -1.215648973105e-06 
   45       1.324700375978e+03       8.332006780072e-02       0.000000000000e+00       1.315346441914e+00       1.486666151702e-07       8.774187834004e-04      -1.386496542461e-06 
   46       1.343758102459e+03       8.953884556265e-02       0.000000000000e+00       1.192851477002e+00       1.481809044330e-07       8.585290340581e-04      -1.498807126752e-06 
   47       1.362940884426e+03       9.603787525883e-02       0.000000000000e+00       1.056389499922e+00       1.476922691598e-07       8.398195592206e-04      -1.550405046680e-06 
   48       1.382318586894e+03       1.028206978316e-01       0.000000000000e+00       9.058466638263e-01       1.472092769268e-07       8.215180111829e-04      -1.540872904163e-06 
   49       1.401954313205e+03       1.098905840524e-01       0.000000000000e+00       7.411659092731e-01       1.467120775022e-07       8.037880338491e-04      -1.471822678219e-06 
   50       1.421893727311e+03       1.172501244583e-01       0.000000000000e+00       5.624075878449e-01       1.461653293618e-07       7.867349685680e-04      -1.348915370040e-06 
   51       1.442131856976e+03       1.248998879549e-01       0.000000000000e+00       3.699443239011e-01       1.455841476092e-07       7.704585307833e-04      -1.188206083919e-06 
   52       1.462635600857e+03       1.328393841940e-01       0.000000000000e+00       1.643238207373e-01       1.449902354078e-07       7.549978190949e-04      -1.012832274146e-06 
   53       1.483351253320e+03       1.410674063225e-01       0.000000000000e+00      -5.377902268919e-02       1.443911174773e-07       7.403014719845e-04      -8.520541974998e-07 
   54       1.504203076438e+03       1.495820034639e-01       0.000000000000e+00      -2.835566265256e-01       1.437762476772e-07       7.262142117108e-04      -7.418554550615e-07 
   55       1.525118695107e+03       1.583811222940e-01       0.000000000000e+00      -5.243003581457e-01       1.431260570781e-07       7.125402568168e-04      -7.156863453985e-07 
   56       1.546115941487e+03       1.674647814461e-01       0.000000000000e+00      -7.761753654128e-01       1.424551503739e-07       6.992952044163e-04      -7.711199497164e-07 
   57       1.567235083327e+03       1.768333890752e-01       0.000000000000e+00      -1.039628620816e+00       1.417824958406e-07       6.865221277148e-04      -8.920186075922e-07 
   58       1.588513516428e+03       1.864871196724e-01       0.000000000000e+00      -1.315172343760e+00       1.411177339969e-07       6.742156352884e-04      -1.056878568710e-06 
   59       1.609985381697e+03       1.964259126163e-01       0.000000000000e+00      -1.603387753518e+00       1.404587827883e-07       6.623150462616e-04      -1.238305991236e-06 
   60       1.631681182200e+03       2.066494707231e-01       0.000000000000e+00      -1.904928822175e+00       1.397892240952e-07       6.506972761751e-04      -1.402474029930e-06 
   61       1.653625661901e+03       2.171567609745e-01       0.000000000000e+00      -2.220373997784e+00       1.390870445364e-07       6.392255335177e-04      -1.517125911312e-06 
   62       1.675831751802e+03       2.279443890241e-01       0.000000000000e+00      -2.549733991262e+00       1.383624781988e-07       6.279321789668e-04      -1.580086160981e-06 
   63       1.698304579219e+03       2.390078555990e-01       0.000000000000e+00      -2.892839663849e+00       1.376317799928e-07       6.168838266681e-04      -1.599284338415e-06 
   64       1.721042656778e+03       2.503420052231e-01       0.000000000000e+00      -3.249483258084e+00       1.369058659762e-07       6.061277842029e-04      -1.585222173584e-06 
   65       1.744037444313e+03       2.619410089723e-01       0.000000000000e+00      -3.619417326964e+00       1.361889921283e-07       5.956891794327e-04      -1.551204431519e-06 
   66       1.767272910767e+03       2.737983472297e-01       0.000000000000e+00      -4.002353663106e+00       1.354773220536e-07       5.855679716973e-04      -1.513577380464e-06 
   67       1.790725096091e+03       2.859067924401e-01       0.000000000000e+00      -4.397962227899e+00       1.347573800776e-07       5.757358473665e-04      -1.491974863586e-06 
   68       1.814370725490e+03       2.982589719261e-01       0.000000000000e+00      -4.805920069833e+00       1.340127372511e-07       5.661555645118e-04      -1.504767196255e-06 
   69       1.838216058315e+03       3.108492273101e-01       0.000000000000e+00      -5.226071983312e+00       1.332512654794e-07       5.568533337741e-04      -1.553199898212e-06 
   70       1.862273124551e+03       3.236721026113e-01       0.000000000000e+00      -5.658300629411e+00       1.324857445611e-07       5.478625022047e-04      -1.632919217614e-06 
   71       1.886550986807e+03       3.367217951553e-01       0.000000000000e+00      -6.102479630977e+00       1.317257614495e-07       5.392011228053e-04      -1.738265258553e-06 
   72       1.911055533737e+03       3.499921531640e-01       0.000000000000e+00      -6.558473780284e+00       1.309769723776e-07       5.308701043056e-04      -1.862165879985e-06 
   73       1.935789273452e+03       3.634766733463e-01       0.000000000000e+00      -7.026139246684e+00       1.302403086307e-07       5.228512958468e-04      -1.996027434350e-06 
   74       1.960751126944e+03       3.771684984882e-01       0.000000000000e+00      -7.505323784264e+00       1.295111243425e-07       5.151055065675e-04      -2.129622345885e-06 
   75       1.985936221501e+03       3.910604150432e-01       0.000000000000e+00      -7.995866939498e+00       1.287782846907e-07       5.075704600951e-04      -2.250973528620e-06 
   76       2.011339461637e+03       4.051442319092e-01       0.000000000000e+00      -8.497582311362e+00       1.280290964140e-07       5.001817852371e-04      -2.348965709566e-06 
   77       2.036967450321e+03       4.194087913022e-01       0.000000000000e+00      -9.010200137952e+00       1.272685009899e-07       4.929474871038e-04      -2.422281495781e-06 
   78       2.062828376422e+03       4.338415890925e-01       0.000000000000e+00      -9.533414568884e+00       1.265050063189e-07       4.858899004346e-04      -2.472681283562e-06 
   79       2.088928303022e+03       4.484293465848e-01       0.000000000000e+00      -1.006690052625e+01       1.257449751904e-07       4.790235057106e-04      -2.502525893141e-06 
   80       2.115271038295e+03       4.631579954193e-01       0.000000000000e+00      -1.061031354423e+01       1.249921951945e-07       4.723540536376e-04      -2.514821917032e-06 
   81       2.141858006382e+03       4.780126624727e-01       0.000000000000e+00      -1.116328960875e+01       1.242474193717e-07       4.658776616883e-04      -2.513268298939e-06 
   82       2.168688118276e+03       4.929776547592e-01       0.000000000000e+00      -1.172544499707e+01       1.235078768433e-07       4.595798827027e-04      -2.502304143191e-06 
   83       2.195757642695e+03       5.080364443318e-01       0.000000000000e+00      -1.229637611743e+01       1.227667526673e-07       4.534347455471e-04      -2.487157754737e-06 
   84       2.223062452258e+03       5.231729964587e-01       0.000000000000e+00      -1.287567758145e+01       1.220164631439e-07       4.474152132602e-04      -2.472730166742e-06 
   85       2.250605472683e+03       5.383760402146e-01       0.000000000000e+00      -1.346300021502e+01       1.212610280499e-07       4.415297936220e-04      -2.459811081307e-06 
   86       2.278390237512e+03       5.536354814711e-01       0.000000000000e+00      -1.405800241507e+01       1.205067321851e-07       4.357931791148e-04      -2.448018213545e-06 
   87       2.306418534728e+03       5.689411299359e-01       0.000000000000e+00      -1.466033291573e+01       1.197584016773e-07       4.302151147755e-04      -2.436876872808e-06 
   88       2.334690317561e+03       5.842827066291e-01       0.000000000000e+00      -1.526963093441e+01       1.190191418540e-07       4.247999035572e-04      -2.425813542210e-06 
   89       2.363203615282e+03       5.996498513608e-01       0.000000000000e+00      -1.588552631786e+01       1.182900589868e-07       4.195458974074e-04      -2.414149296312e-06 
   90       2.391954444007e+03       6.150321302081e-01       0.000000000000e+00      -1.650763968821e+01       1.175699655340e-07       4.144449740645e-04      -2.401093056959e-06 
   91       2.420936717494e+03       6.304190429921e-01       0.000000000000e+00      -1.713558258903e+01       1.168550685009e-07       4.094819995716e-04      -2.385734687273e-06 
   92       2.450142157946e+03       6.458000307553e-01       0.000000000000e+00      -1.776895763140e+01       1.161386405410e-07       4.046342765082e-04      -2.367037923805e-06 
   93       2.479562851075e+03       6.611639562197e-01       0.000000000000e+00      -1.840734975512e+01       1.154137926418e-07       3.998793270554e-04      -2.344117971011e-06 
   94       2.509199544646e+03       6.764974395386e-01       0.000000000000e+00      -1.905029819157e+01       1.146835520607e-07       3.952215261659e-04      -2.317162479013e-06 
   95       2.539054438921e+03       6.917862849017e-01       0.000000000000e+00      -1.969732053450e+01       1.139531382476e-07       3.906704067433e-04      -2.286704171743e-06 
   96       2.569128601405e+03       7.070159854908e-01       0.000000000000e+00      -2.034792127290e+01       1.132269683825e-07       3.862325772171e-04      -2.253358177629e-06 
   97       2.599421913945e+03       7.221717237226e-01       0.000000000000e+00      -2.100159181512e+01       1.125085158195e-07       3.819114568968e-04      -2.217826383687e-06 
   98       2.629933019825e+03       7.372383714918e-01       0.000000000000e+00      -2.165781051299e+01       1.118001604940e-07       3.777070043991e-04      -2.180901878665e-06 
   99       2.660659270865e+03       7.522004904136e-01       0.000000000000e+00      -2.231604268584e+01       1.111030311202e-07       3.736154391463e-04      -2.143473485238e-06 
  100       2.691596674517e+03       7.670423320668e-01       0.000000000000e+00      -2.297574064470e+01       1.104168390078e-07       3.696289559376e-04      -2.106530381251e-06 
  101       2.722739840966e+03       7.817478382363e-01       0.000000000000e+00      -2.363634371631e+01       1.097397033237e-07       3.657354325926e-04      -2.071166810022e-06 
  102       2.754081930220e+03       7.963006411566e-01       0.000000000000e+00      -2.429727826726e+01       1.090679676290e-07       3.619181306668e-04      -2.038586879685e-06 
  103       2.785614599216e+03       8.106840637537e-01       0.000000000000e+00      -2.495795772808e+01       1.083960075160e-07       3.581553892387e-04      -2.010109451595e-06 
  104       2.817329784248e+03       8.248818054965e-01       0.000000000000e+00      -2.561780100860e+01       1.077183139928e-07       3.544270931466e-04      -1.986888627749e-06 
  105       2.849225436433e+03       8.388801049401e-01       0.000000000000e+00      -2.627629052525e+01       1.070368470382e-07       3.507362694807e-04      -1.968999381023e-06 
  106       2.881300466010e+03       8.526658711230e-01       0.000000000000e+00      -2.693292209378e+01       1.063552722727e-07       3.470912697839e-04      -1.956176479128e-06 
  107       2.913552943844e+03       8.662260317293e-01       0.000000000000e+00      -2.758718746151e+01       1.056767728991e-07       3.434992645602e-04      -1.948078636744e-06 
