# dimensionless total lensed [l(l+1)/2pi] C_l's
# for l=2 to 3000, i.e. number of multipoles equal to 2999
#
# -> if you prefer output in CAMB/HealPix/LensPix units/order, set 'format' to 'camb' in input file
# -> if you don't want to see such a header, set 'headers' to 'no' in input file
# -> for CMB lensing (phi), these are C_l^phi-phi for the lensing potential.
#    Remember the conversion factors:
#    C_l^dd (deflection) = l(l+1) C_l^phi-phi
#    C_l^gg (shear/convergence) = 1/4 (l(l+1))^2 C_l^phi-phi
#
# 1:l     2:TT                     3:EE                     4:TE                     5:BB                     6:phiphi                 7:TPhi                   8:Ephi               
    2       5.188332217422e-10       2.553380118721e-15       6.563199438970e-13       4.071334824956e-19       2.351061029918e-08      -2.658712204898e-09      -1.857082716414e-12 
    3       3.809398941630e-10       4.872928304783e-15       6.339474830426e-13       8.149874419796e-19       1.395725774205e-08      -1.748262838765e-09      -1.510347240579e-12 
    4       3.059076187596e-10       7.119913605950e-15       6.029041710083e-13       1.359878513606e-18       9.638641318137e-09      -1.269280947081e-09      -1.275633466955e-12 
    5       2.591789089964e-10       8.582121988442e-15       5.596921258060e-13       2.042671637804e-18       7.161217946000e-09      -9.764201136327e-10      -1.072201706227e-12 
    6       2.274115013641e-10       8.934779359498e-15       5.063714836249e-13       2.864369402494e-18       5.560660910617e-09      -7.803242791401e-10      -8.800862658881e-13 
    7       2.045674555064e-10       8.258655402675e-15       4.488959630604e-13       3.826065050562e-18       4.459534676180e-09      -6.412437192792e-10      -7.016183424749e-13 
    8       1.875504989136e-10       6.881105548769e-15       3.915213481290e-13       4.928891174969e-18       3.669035424784e-09      -5.383385696590e-10      -5.397542859821e-13 
    9       1.745295763058e-10       5.214430137819e-15       3.371576314645e-13       6.173966493639e-18       3.081565982764e-09      -4.597213561139e-10      -3.967536939934e-13 
   10       1.644028595521e-10       3.624061791105e-15       2.876300632479e-13       7.562343200403e-18       2.631904384724e-09      -3.980367158224e-10      -2.739691574137e-13 
   11       1.564286430103e-10       2.351223473122e-15       2.439964392549e-13       9.094957380669e-18       1.991632747584e-09      -3.301292135511e-10      -1.725189420396e-13 
   12       1.500603754343e-10       1.492463772994e-15       2.068875374222e-13       1.077258486105e-17       1.725363543423e-09      -2.905268512186e-10      -9.128170824371e-14 
   13       1.449789999132e-10       1.022605020100e-15       1.765533720255e-13       1.259580463550e-17       1.508889269090e-09      -2.576194312624e-10      -2.900335690031e-14 
   14       1.409382921817e-10       8.411328621429e-16       1.529730850053e-13       1.456497168579e-17       1.330414456622e-09      -2.300730376233e-10       1.528186599355e-14 
   15       1.376851023185e-10       8.227473749538e-16       1.359329089398e-13       1.668020060541e-17       1.181468691974e-09      -2.065612047561e-10       4.398370560746e-14 
   16       1.350887305434e-10       8.577487460416e-16       1.249386980752e-13       1.894136095983e-17       1.055834735354e-09      -1.864165546434e-10       5.894801929661e-14 
   17       1.330599735128e-10       8.749476092900e-16       1.192273874129e-13       2.134808479399e-17       9.488677728996e-10      -1.688751906154e-10       6.297666878487e-14 
   18       1.314553237544e-10       8.457186469344e-16       1.179432974016e-13       2.389977991715e-17       8.565979328272e-10      -1.536108645557e-10       5.851566540030e-14 
   19       1.302556702961e-10       7.797889519184e-16       1.203686529809e-13       2.659569191891e-17       7.775879081491e-10      -1.404159785178e-10       4.779952526294e-14 
   20       1.293766463020e-10       7.019462037247e-16       1.253994403054e-13       2.943487750198e-17       7.083888419324e-10      -1.286835423459e-10       3.376046387317e-14 
   21       1.287872726008e-10       6.372800382619e-16       1.322638642110e-13       3.241634272767e-17       6.477914203563e-10      -1.182643948181e-10       1.827159431408e-14 
   22       1.284184966033e-10       6.104506509351e-16       1.401209189832e-13       3.553900832695e-17       5.942976860837e-10      -1.089928641085e-10       3.049484092761e-15 
   23       1.282619691429e-10       6.252949806028e-16       1.483960120755e-13       3.880186004281e-17       5.470926126240e-10      -1.007628263532e-10      -1.067214281825e-14 
   24       1.282906261115e-10       6.755310544678e-16       1.565414951280e-13       4.220391409319e-17       5.049836351874e-10      -9.338280368251e-11      -2.185261501580e-14 
   25       1.284869373541e-10       7.481260436976e-16       1.642493075373e-13       4.574437586797e-17       4.674237124441e-10      -8.674917816410e-11      -3.002962861791e-14 
   26       1.288132902630e-10       8.264983689847e-16       1.712908238217e-13       4.942259950927e-17       4.336890934481e-10      -8.072538300443e-11      -3.505617500843e-14 
   27       1.292657993185e-10       9.019061588195e-16       1.775929077524e-13       5.323821669979e-17       4.033392283159e-10      -7.525978326678e-11      -3.708150722293e-14 
   28       1.298344780554e-10       9.690735488585e-16       1.831577805783e-13       5.719110894482e-17       3.758129498371e-10      -7.028835634433e-11      -3.647870727260e-14 
   29       1.305181257095e-10       1.031703106246e-15       1.880662003620e-13       6.128151084184e-17       3.509481158756e-10      -6.578292903094e-11      -3.367340824719e-14 
   30       1.312975988793e-10       1.097751384524e-15       1.924583602749e-13       6.550997528008e-17       3.284555701477e-10      -6.167981632896e-11      -2.926942947942e-14 
   31       1.321385179588e-10       1.176057383665e-15       1.965073111682e-13       6.987736078601e-17       3.078488812082e-10      -5.788186418435e-11      -2.400304369396e-14 
   32       1.330437219363e-10       1.271174729971e-15       2.003487580571e-13       7.438480496525e-17       2.890085389486e-10      -5.437786459435e-11      -1.837585169763e-14 
   33       1.340169584366e-10       1.386692866015e-15       2.041288057425e-13       7.903378918746e-17       2.717899363104e-10      -5.116120323057e-11      -1.290221215429e-14 
   34       1.350521354557e-10       1.525453933141e-15       2.079975942386e-13       8.382610255245e-17       2.559379164047e-10      -4.820440045171e-11      -8.120609717086e-15 
   35       1.361489821361e-10       1.685614137675e-15       2.120180741755e-13       8.876359479051e-17       2.413629000285e-10      -4.548863597672e-11      -4.276201580273e-15 
   36       1.373005860029e-10       1.863090235061e-15       2.162249939076e-13       9.384837508039e-17       2.279392635893e-10      -4.298042957430e-11      -1.529064196751e-15 
   37       1.384940845047e-10       2.053669876677e-15       2.206303750275e-13       9.908272632788e-17       2.154820657373e-10      -4.063589692464e-11       3.545270476710e-18 
   38       1.397313890211e-10       2.257020722595e-15       2.251627285516e-13       1.044685170267e-16       2.039543479214e-10      -3.844959900268e-11       3.850287511323e-16 
   39       1.410138079064e-10       2.473954876498e-15       2.297046819283e-13       1.100076137822e-16       1.933154686739e-10      -3.641944493032e-11      -2.271022076652e-16 
   40       1.423355968467e-10       2.705361194504e-15       2.341062702895e-13       1.157020463837e-16       1.834582057349e-10      -3.453235374872e-11      -1.612287273635e-15 
   41       1.436876008865e-10       2.952000528674e-15       2.382003478878e-13       1.215537788811e-16       1.742451958191e-10      -3.276937129669e-11      -3.509822705693e-15 
   42       1.450713004257e-10       3.213800764280e-15       2.418604612652e-13       1.275639191465e-16       1.656464162181e-10      -3.112539168498e-11      -5.707536238603e-15 
   43       1.464881515781e-10       3.490339664620e-15       2.449578912846e-13       1.337332618295e-16       1.576367288677e-10      -2.959419817774e-11      -7.974283353922e-15 
   44       1.479352356423e-10       3.781024383763e-15       2.473444445498e-13       1.400624908028e-16       1.501546975990e-10      -2.816236050535e-11      -1.003232710116e-14 
   45       1.494077043821e-10       4.085301424379e-15       2.488786787152e-13       1.465520186099e-16       1.431239968528e-10      -2.681373185937e-11      -1.161424863649e-14 
   46       1.509079447921e-10       4.403384882857e-15       2.495165299167e-13       1.532014721587e-16       1.365320503259e-10      -2.554587539266e-11      -1.266025711390e-14 
   47       1.524384633033e-10       4.735728942561e-15       2.492459011022e-13       1.600100355206e-16       1.303700079258e-10      -2.435758686919e-11      -1.317532772448e-14 
   48       1.539990365050e-10       5.082829451888e-15       2.480621422738e-13       1.669765681149e-16       1.246090606796e-10      -2.324399191348e-11      -1.317548583809e-14 
   49       1.555864691803e-10       5.445226609690e-15       2.459685202334e-13       1.740995856282e-16       1.191989621717e-10      -2.219627218210e-11      -1.268856931872e-14 
   50       1.571963459600e-10       5.823558233078e-15       2.429789207062e-13       1.813773246992e-16       1.140829265657e-10      -2.120437160853e-11      -1.176306307088e-14 
   51       1.588294081671e-10       6.218730376318e-15       2.391257295848e-13       1.888080019375e-16       1.092505203045e-10      -2.026661641842e-11      -1.049566116220e-14 
   52       1.604864896453e-10       6.631797666431e-15       2.344549029427e-13       1.963895922310e-16       1.046965714781e-10      -1.938223302931e-11      -9.012503836197e-15 
   53       1.621665297946e-10       7.063921714167e-15       2.290244827913e-13       2.041197363473e-16       1.004053569319e-10      -1.854846578155e-11      -7.462874251280e-15 
   54       1.638664254243e-10       7.516376179777e-15       2.229051718774e-13       2.119957257953e-16       9.634989436662e-11      -1.776044334842e-11      -6.020340665732e-15 
   55       1.655825485425e-10       7.990298947723e-15       2.161611844929e-13       2.200148819348e-16       9.250004920395e-11      -1.701266211993e-11      -4.846961315186e-15 
   56       1.673160806509e-10       8.485864950920e-15       2.087859114190e-13       2.281758382737e-16       8.885083527806e-11      -1.630417392570e-11      -3.972869276361e-15 
   57       1.690687441133e-10       9.002916731377e-15       2.007512795767e-13       2.364775502047e-16       8.539990470093e-11      -1.563445306085e-11      -3.388774525176e-15 
   58       1.708411708939e-10       9.541194644710e-15       1.920258862983e-13       2.449189288844e-16       8.213899253152e-11      -1.500182316985e-11      -3.079989919624e-15 
   59       1.726328193174e-10       1.010033207302e-14       1.825748056583e-13       2.534988414549e-16       7.905355230827e-11      -1.440338665574e-11      -3.026134268923e-15 
   60       1.744418908294e-10       1.067985063776e-14       1.723593948043e-13       2.622161112660e-16       7.612239158143e-11      -1.383495408936e-11      -3.200835402662e-15 
   61       1.762663254093e-10       1.127931289132e-14       1.613395563514e-13       2.710699107078e-16       7.332350127656e-11      -1.329219179343e-11      -3.570748204432e-15 
   62       1.781072372154e-10       1.189883127188e-14       1.494815571176e-13       2.800610422439e-16       7.065389733128e-11      -1.277452529770e-11      -4.093022892951e-15 
   63       1.799661059061e-10       1.253866541399e-14       1.367516287054e-13       2.891909466226e-16       6.811360624123e-11      -1.228199077907e-11      -4.716738974205e-15 
   64       1.818437179924e-10       1.319907495610e-14       1.231135528550e-13       2.984613480676e-16       6.569969961358e-11      -1.181406289539e-11      -5.383227776883e-15 
   65       1.837401178225e-10       1.388031975005e-14       1.085285457047e-13       3.078742669568e-16       6.340612622511e-11      -1.136962284642e-11      -6.025753785866e-15 
   66       1.856545585674e-10       1.458266007070e-14       9.295514205075e-14       3.174320325023e-16       6.122354408014e-11      -1.094692643486e-11      -6.569195975718e-15 
   67       1.875854532051e-10       1.530635682544e-14       7.634907960728e-14       3.271372954288e-16       5.913915246854e-11      -1.054357212726e-11      -6.929729144176e-15 
   68       1.895311285548e-10       1.605163397247e-14       5.867327061945e-14       3.369927370628e-16       5.714008898082e-11      -1.015713902802e-11      -7.036273381053e-15 
   69       1.914923743589e-10       1.681855646437e-14       3.993032167710e-14       3.470000998054e-16       5.522479525081e-11      -9.787322305708e-12      -6.900601722168e-15 
   70       1.934703250324e-10       1.760712783552e-14       2.013642562670e-14       3.571609820825e-16       5.339366309480e-11      -9.434175071759e-12      -6.560930954895e-15 
   71       1.954656743492e-10       1.841732506172e-14      -6.880030588009e-16       3.674771293804e-16       5.164559793244e-11      -9.097462211782e-12      -6.061644188116e-15 
   72       1.974786469651e-10       1.924909780319e-14      -2.251818603132e-14       3.779504391604e-16       4.997794202010e-11      -8.776645579870e-12      -5.453528915513e-15 
   73       1.995089699419e-10       2.010236764763e-14      -4.532483881911e-14       3.885829657737e-16       4.838639768423e-11      -8.470869192906e-12      -4.794015078868e-15 
   74       2.015558442697e-10       2.097702735322e-14      -6.907402857814e-14       3.993769253762e-16       4.686495055475e-11      -8.178944424863e-12      -4.147413131356e-15 
   75       2.036179163913e-10       2.187294009168e-14      -9.372703184349e-14       4.103347008431e-16       4.540579279839e-11      -7.899335201107e-12      -3.585152100842e-15 
   76       2.056938745526e-10       2.278996818034e-14      -1.192498737233e-13       4.214581713107e-16       4.400125490828e-11      -7.630535922201e-12      -3.170000083834e-15 
   77       2.077844263533e-10       2.372806700077e-14      -1.456442681759e-13       4.327465487866e-16       4.265017745982e-11      -7.372317526633e-12      -2.904877480869e-15 
   78       2.098906317510e-10       2.468720691098e-14      -1.729220876177e-13       4.441981541310e-16       4.135256720408e-11      -7.124682810363e-12      -2.775098754144e-15 
   79       2.120132948149e-10       2.566734512587e-14      -2.010962373815e-13       4.558110486427e-16       4.010765658610e-11      -6.887487212174e-12      -2.763472999613e-15 
   80       2.141529480617e-10       2.666842556497e-14      -2.301807119932e-13       4.675830251239e-16       3.891386816537e-11      -6.660432061212e-12      -2.850213557059e-15 
   81       2.163098367911e-10       2.769037870013e-14      -2.601906514494e-13       4.795115989468e-16       3.776877903629e-11      -6.443057824520e-12      -3.012847620149e-15 
   82       2.184839034221e-10       2.873312140330e-14      -2.911423974947e-13       4.915939991187e-16       3.666908524856e-11      -6.234737354583e-12      -3.226125846502e-15 
   83       2.206747718289e-10       2.979655679420e-14      -3.230535498986e-13       5.038271593480e-16       3.561056622764e-11      -6.034669136860e-12      -3.461931967750e-15 
   84       2.228820421776e-10       3.088055939985e-14      -3.559395327263e-13       5.162080516562e-16       3.458910982513e-11      -5.842063828820e-12      -3.694441293592e-15 
   85       2.251062659078e-10       3.198492813996e-14      -3.898025158325e-13       5.287347703296e-16       3.360406065370e-11      -5.656754199367e-12      -3.916776793153e-15 
   86       2.273481044149e-10       3.310942523205e-14      -4.246407514283e-13       5.414056121185e-16       3.265536418261e-11      -5.478674394282e-12      -4.126961351933e-15 
   87       2.296080226278e-10       3.425378979348e-14      -4.604518984515e-13       5.542187465379e-16       3.174253796891e-11      -5.307672182792e-12      -4.322912241077e-15 
   88       2.318862785640e-10       3.541773744231e-14      -4.972330201880e-13       5.671722126901e-16       3.086465390357e-11      -5.143505453712e-12      -4.502438944145e-15 
   89       2.341829128837e-10       3.660095989811e-14      -5.349805818939e-13       5.802639160875e-16       3.002032045759e-11      -4.985838711573e-12      -4.663240983882e-15 
   90       2.364977384445e-10       3.780312458289e-14      -5.736904484167e-13       5.934916254750e-16       2.920766492822e-11      -4.834239572766e-12      -4.802905748987e-15 
   91       2.388303298553e-10       3.902387422193e-14      -6.133578818173e-13       6.068529696535e-16       2.842431568506e-11      -4.688175261667e-12      -4.918906320880e-15 
   92       2.411800130316e-10       4.026282644464e-14      -6.539775389916e-13       6.203454343020e-16       2.766738441625e-11      -4.547009106784e-12      -5.008599300470e-15 
   93       2.435461738145e-10       4.151959008819e-14      -6.955424851844e-13       6.339671618302e-16       2.693415256654e-11      -4.410152100842e-12      -5.070156744473e-15 
   94       2.459292596147e-10       4.279381778018e-14      -7.380410699807e-13       6.477194954438e-16       2.622428731063e-11      -4.277551266466e-12      -5.105527027835e-15 
   95       2.483299098041e-10       4.408516056325e-14      -7.814595748798e-13       6.616048136128e-16       2.553792758806e-11      -4.149268604205e-12      -5.117917349210e-15 
   96       2.507486440894e-10       4.539325172938e-14      -8.257831398639e-13       6.756257688754e-16       2.487500162830e-11      -4.025331216244e-12      -5.110909806192e-15 
   97       2.531858564455e-10       4.671770665005e-14      -8.709957475112e-13       6.897852956844e-16       2.423521886318e-11      -3.905729931067e-12      -5.088472044447e-15 
   98       2.556418090507e-10       4.805812260636e-14      -9.170802071091e-13       7.040866182525e-16       2.361806183939e-11      -3.790417928141e-12      -5.054967906851e-15 
   99       2.581166262199e-10       4.941407861919e-14      -9.640181387665e-13       7.185332583986e-16       2.302277813099e-11      -3.679309362581e-12      -5.015168082631e-15 
  100       2.606102883396e-10       5.078513527931e-14      -1.011789957528e-12       7.331290433931e-16       2.244837225184e-11      -3.572277989825e-12      -4.974260756497e-15 
  101       2.631226258016e-10       5.217083457756e-14      -1.060374857484e-12       7.478781138042e-16       2.189359756809e-11      -3.469155790312e-12      -4.937862257782e-15 
  102       2.656533129375e-10       5.357069973493e-14      -1.109750795889e-12       7.627849313435e-16       2.135694821070e-11      -3.369731594146e-12      -4.912027709579e-15 
  103       2.682018619529e-10       5.498423503278e-14      -1.159894477268e-12       7.778542867120e-16       2.083665098786e-11      -3.273749705777e-12      -4.903261677879e-15 
  104       2.707678354528e-10       5.641091397195e-14      -1.210783568154e-12       7.930902782334e-16       2.033106899730e-11      -3.180966451376e-12      -4.916969297580e-15 
  105       2.733515297809e-10       5.785014229456e-14      -1.262403716224e-12       8.084930737244e-16       1.983999197646e-11      -3.091331482801e-12      -4.952548425620e-15 
  106       2.759533731110e-10       5.930128962711e-14      -1.314742454143e-12       8.240617237909e-16       1.936350599378e-11      -3.004828515168e-12      -5.007651275949e-15 
  107       2.785737114790e-10       6.076370041080e-14      -1.367787062131e-12       8.397951485564e-16       1.890159379405e-11      -2.921418861303e-12      -5.079678329394e-15 
