# dimensionless total lensed [l(l+1)/2pi] C_l's
# for l=2 to 3000, i.e. number of multipoles equal to 2999
#
# -> if you prefer output in CAMB/HealPix/LensPix units/order, set 'format' to 'camb' in input file
# -> if you don't want to see such a header, set 'headers' to 'no' in input file
# -> for CMB lensing (phi), these are C_l^phi-phi for the lensing potential.
#    Remember the conversion factors:
#    C_l^dd (deflection) = l(l+1) C_l^phi-phi
#    C_l^gg (shear/convergence) = 1/4 (l(l+1))^2 C_l^phi-phi
#
# 1:l     2:TT                     3:EE                     4:TE                     5:BB                     6:phiphi                 7:TPhi                   8:Ephi               
    2       5.188652100967e-10       2.553338941075e-15       6.563360127465e-13       4.071440269160e-19       2.351504867310e-08      -2.658862264912e-09      -1.857092506420e-12 
    3       3.809603696216e-10       4.872854372552e-15       6.339637673371e-13       8.150085863964e-19       1.395936446699e-08      -1.748321708586e-09      -1.510356151269e-12 
    4       3.059213300425e-10       7.119835985064e-15       6.029186598970e-13       1.359913874866e-18       9.639795931508e-09      -1.269323196675e-09      -1.275639567646e-12 
    5       2.591879681019e-10       8.582080699078e-15       5.597047308071e-13       2.042724898823e-18       7.161974823946e-09      -9.764492358475e-10      -1.072207483669e-12 
    6       2.274171263695e-10       8.934803069269e-15       5.063824874409e-13       2.864444322178e-18       5.561225418590e-09      -7.803437170370e-10      -8.800933555987e-13 
    7       2.045708844673e-10       8.258748891846e-15       4.489055385008e-13       3.826165469807e-18       4.459951314775e-09      -6.412587205085e-10      -7.016270880747e-13 
    8       1.875525301581e-10       6.881251302013e-15       3.915296897047e-13       4.929021018378e-18       3.669344658723e-09      -5.383501506454e-10      -5.397644523269e-13 
    9       1.745305594270e-10       5.214597635201e-15       3.371649489689e-13       6.174129766819e-18       3.081830926166e-09      -4.597290480153e-10      -3.967647882202e-13 
   10       1.644028251684e-10       3.624219118417e-15       2.876364280853e-13       7.562543982902e-18       2.632087784711e-09      -3.980419051468e-10      -2.739805766855e-13 
   11       1.564280272297e-10       2.351346955098e-15       2.440017575074e-13       9.095199814847e-18       1.991763736521e-09      -3.301364966092e-10      -1.725301757691e-13 
   12       1.500595699259e-10       1.492542970417e-15       2.068918757677e-13       1.077287313736e-17       1.725477035541e-09      -2.905335871588e-10      -9.129238788077e-14 
   13       1.449780163289e-10       1.022642709510e-15       1.765569503120e-13       1.259614297482e-17       1.508988395084e-09      -2.576252712533e-10      -2.901182440988e-14 
   14       1.409372717791e-10       8.411411085971e-16       1.529757723406e-13       1.456536431972e-17       1.330501754583e-09      -2.300783096159e-10       1.527456948565e-14 
   15       1.376837764713e-10       8.227417234472e-16       1.359345777476e-13       1.668065175529e-17       1.181545908616e-09      -2.065662987341e-10       4.397782903506e-14 
   16       1.350873608417e-10       8.577428385449e-16       1.249395595673e-13       1.894187481571e-17       1.055903452158e-09      -1.864212570165e-10       5.894447906765e-14 
   17       1.330584622575e-10       8.749497351554e-16       1.192276460547e-13       2.134866549439e-17       9.489292423849e-10      -1.688796687626e-10       6.297454628544e-14 
   18       1.314538132214e-10       8.457302946250e-16       1.179429500647e-13       2.390043153023e-17       8.566531210100e-10      -1.536148717772e-10       5.851519865113e-14 
   19       1.302543250205e-10       7.798072284640e-16       1.203677422373e-13       2.659641842924e-17       7.776376595878e-10      -1.404194852189e-10       4.780080618135e-14 
   20       1.293754669936e-10       7.019647571041e-16       1.253981330085e-13       2.943568279510e-17       7.084337550133e-10      -1.286869957324e-10       3.376270865735e-14 
   21       1.287861674858e-10       6.372930673504e-16       1.322622984197e-13       3.241723058680e-17       6.478320611946e-10      -1.182678772730e-10       1.827415858262e-14 
   22       1.284173391974e-10       6.104548588639e-16       1.401191584802e-13       3.553998242686e-17       5.943345881217e-10      -1.089959005279e-10       3.052210335974e-15 
   23       1.282608070677e-10       6.252898947028e-16       1.483941722120e-13       3.880292395663e-17       5.471262487088e-10      -1.007653693280e-10      -1.066940250508e-14 
   24       1.282896961730e-10       6.755192260533e-16       1.565397598241e-13       4.220507129651e-17       5.050143693203e-10      -9.338544189067e-11      -2.185013657917e-14 
   25       1.284862345250e-10       7.481110817617e-16       1.642477695606e-13       4.574562975636e-17       4.674518755414e-10      -8.675205572205e-11      -3.002767516672e-14 
   26       1.288124918984e-10       8.264839190330e-16       1.712894380282e-13       4.942395341259e-17       4.337149785980e-10      -8.072795603318e-11      -3.505492981942e-14 
   27       1.292648069669e-10       9.018941696316e-16       1.775916185859e-13       5.323967390738e-17       4.033630888554e-10      -7.526183730574e-11      -3.708103552786e-14 
   28       1.298335532806e-10       9.690636288210e-16       1.831565602519e-13       5.719267272835e-17       3.758349847800e-10      -7.029027419517e-11      -3.647894688067e-14 
   29       1.305174838135e-10       1.031693755966e-15       1.880650207256e-13       6.128318448631e-17       3.509685087963e-10      -6.578505316033e-11      -3.367427047153e-14 
   30       1.312972466258e-10       1.097740253671e-15       1.924571840180e-13       6.551176211252e-17       3.284744843579e-10      -6.168219981590e-11      -2.927083471331e-14 
   31       1.321382604151e-10       1.176041451645e-15       1.965060925785e-13       6.987926420302e-17       3.078664467828e-10      -5.788427285069e-11      -2.400491079075e-14 
   32       1.330434132679e-10       1.271151654837e-15       2.003474491506e-13       7.438682845655e-17       2.890248777569e-10      -5.438010313770e-11      -1.837801937253e-14 
   33       1.340166024868e-10       1.386661638431e-15       2.041273592598e-13       7.903593636618e-17       2.718051607283e-10      -5.116324073477e-11      -1.290440135731e-14 
   34       1.350518756584e-10       1.525414933165e-15       2.079959728826e-13       8.382837718227e-17       2.559521221781e-10      -4.820636650581e-11      -8.122453760674e-15 
   35       1.361489153134e-10       1.685568064646e-15       2.120162857298e-13       8.876600078977e-17       2.413761772365e-10      -4.549064622186e-11      -4.277455291725e-15 
   36       1.373006894556e-10       1.863037778175e-15       2.162231107482e-13       9.385091654447e-17       2.279516944203e-10      -4.298252173016e-11      -1.529700831981e-15 
   37       1.384942226186e-10       2.053611645016e-15       2.206285240886e-13       9.908540754409e-17       2.154937206289e-10      -4.063803059933e-11       3.338589848854e-18 
   38       1.397314403482e-10       2.256957058566e-15       2.251610001936e-13       1.044713424367e-16       2.039652948539e-10      -3.845172526692e-11       3.850548107731e-16 
   39       1.410137115428e-10       2.473885738525e-15       2.297030924161e-13       1.100105879809e-16       1.933257728302e-10      -3.642152861045e-11      -2.269811663365e-16 
   40       1.423353678566e-10       2.705286063024e-15       2.341047445692e-13       1.157051741334e-16       1.834679251607e-10      -3.453437738247e-11      -1.612131775323e-15 
   41       1.436873257455e-10       2.951918467066e-15       2.381987337821e-13       1.215570651049e-16       1.742543791537e-10      -3.277133544698e-11      -3.509617724821e-15 
   42       1.450710622716e-10       3.213711019962e-15       2.418586528532e-13       1.275673688525e-16       1.656551083393e-10      -3.112730226254e-11      -5.707261817003e-15 
   43       1.464880045047e-10       3.490241895507e-15       2.449558768006e-13       1.337368800831e-16       1.576449705713e-10      -2.959606297365e-11      -7.973936673749e-15 
   44       1.479351975888e-10       3.780918743702e-15       2.473423259587e-13       1.400662827163e-16       1.501625228558e-10      -2.816418926394e-11      -1.003192601377e-14 
   45       1.494077576665e-10       4.085188495014e-15       2.488766617549e-13       1.465559893181e-16       1.431314320510e-10      -2.681553514139e-11      -1.161383128869e-14 
   46       1.509080633266e-10       4.403265078462e-15       2.495148123249e-13       1.532056267524e-16       1.365391206612e-10      -2.554765938637e-11      -1.265986799239e-14 
   47       1.524386203679e-10       4.735602292722e-15       2.492446341562e-13       1.600143790081e-16       1.303767384316e-10      -2.435935103606e-11      -1.317501357000e-14 
   48       1.539992051646e-10       5.082695524890e-15       2.480614197503e-13       1.669811053930e-16       1.246154751760e-10      -2.324572766372e-11      -1.317529528355e-14 
   49       1.555866227350e-10       5.445084431706e-15       2.459683667391e-13       1.741043214522e-16       1.192050821348e-10      -2.219796147724e-11      -1.268855249552e-14 
   50       1.571964587020e-10       5.823406353015e-15       2.429792951268e-13       1.813822636593e-16       1.140887706444e-10      -2.120598867914e-11      -1.176326702246e-14 
   51       1.588294570849e-10       6.218567424002e-15       2.391265801797e-13       1.888131484610e-16       1.092561061673e-10      -2.026813999353e-11      -1.049611141119e-14 
   52       1.604864554932e-10       6.631622544096e-15       2.344561837276e-13       1.963949505630e-16       1.047019158256e-10      -1.938365078127e-11      -9.013195984669e-15 
   53       1.621663979514e-10       7.063733652566e-15       2.290261555107e-13       2.041253105222e-16       1.004104747956e-10      -1.854977590711e-11      -7.463769191199e-15 
   54       1.638661867978e-10       7.516174797141e-15       2.229072080910e-13       2.120015196068e-16       9.635479836250e-11      -1.776165622691e-11      -6.021359561921e-15 
   55       1.655821995743e-10       7.990084216811e-15       2.161635680945e-13       2.200208989404e-16       9.250474945293e-11      -1.701379891082e-11      -4.847991352228e-15 
   56       1.673156202607e-10       8.485636857100e-15       2.087886423197e-13       2.281820819134e-16       8.885534162338e-11      -1.630525491755e-11      -3.973805350163e-15 
   57       1.690681730220e-10       9.002675167910e-15       2.007543767116e-13       2.364840238319e-16       8.540422712078e-11      -1.563549385778e-11      -3.389533520668e-15 
   58       1.708404918311e-10       9.540939395238e-15       1.920293904613e-13       2.449256357632e-16       8.214314087353e-11      -1.500283374829e-11      -3.080514975515e-15 
   59       1.726320372373e-10       1.010006279321e-14       1.825787824633e-13       2.535057847582e-16       7.905753600682e-11      -1.440437037599e-11      -3.026399243113e-15 
   60       1.744410131338e-10       1.067956683609e-14       1.723639377713e-13       2.622232940732e-16       7.612621935809e-11      -1.383590666182e-11      -3.200849538312e-15 
   61       1.762653618217e-10       1.127901394395e-14       1.613447808627e-13       2.710773360365e-16       7.332718104255e-11      -1.329310219053e-11      -3.570553664577e-15 
   62       1.781061984948e-10       1.189851655040e-14       1.494875643010e-13       2.800687131918e-16       7.065743678819e-11      -1.277538311544e-11      -4.092668576271e-15 
   63       1.799650034735e-10       1.253833432425e-14       1.367584928321e-13       2.891988664236e-16       6.811701291071e-11      -1.228278852288e-11      -4.716273057528e-15 
   64       1.818425638885e-10       1.319872694459e-14       1.231213172340e-13       2.984695201183e-16       6.570298065177e-11      -1.181479642051e-11      -5.382697088645e-15 
   65       1.837389246617e-10       1.387995431065e-14       1.085372184087e-13       3.078826948439e-16       6.340928822693e-11      -1.137029181618e-11      -6.025203147584e-15 
   66       1.856533394886e-10       1.458227675158e-14       9.296469147391e-14       3.174407200308e-16       6.122659287351e-11      -1.094753479690e-11      -6.568667511477e-15 
   67       1.875842218194e-10       1.530595523627e-14       7.635942985533e-14       3.271462466521e-16       5.914209289851e-11      -1.054412860767e-11      -6.929261558128e-15 
   68       1.895298985148e-10       1.605121378435e-14       5.868430828903e-14       3.370019562838e-16       5.714292494193e-11      -1.015765655854e-11      -7.035900933935e-15 
   69       1.914911577150e-10       1.681811738559e-14       3.994193985923e-14       3.470095914854e-16       5.522753054499e-11      -9.787813958970e-12      -6.900352305566e-15 
   70       1.934691315495e-10       1.760666960699e-14       2.014853796149e-14       3.571707508257e-16       5.339630161366e-11      -9.434652809867e-12      -6.560824826639e-15 
   71       1.954645111627e-10       1.841684745967e-14      -6.754590923305e-16       3.674871799466e-16       5.164814359260e-11      -9.097936647545e-12      -6.061692922322e-15 
   72       1.974775182241e-10       1.924860064186e-14      -2.250524569795e-14       3.779607764779e-16       4.998039869505e-11      -8.777125728220e-12      -5.453734313755e-15 
   73       1.995078764390e-10       2.010185078209e-14      -4.531150658253e-14       3.885935949530e-16       4.838876913271e-11      -8.471362212489e-12      -4.794368042486e-15 
   74       2.015547830583e-10       2.097649068226e-14      -6.906027442855e-14       3.993878517234e-16       4.686724034561e-11      -8.179455349822e-12      -4.147892494898e-15 
   75       2.036168803894e-10       2.187238356068e-14      -9.371278749771e-14       4.103459298746e-16       4.540800423201e-11      -7.899866663046e-12      -3.585723426638e-15 
   76       2.056928530669e-10       2.278939176831e-14      -1.192350378110e-13       4.214697087068e-16       4.400339101395e-11      -7.631088244388e-12      -3.170618139933e-15 
   77       2.077834085838e-10       2.372747065585e-14      -1.456287405584e-13       4.327584001522e-16       4.265224124482e-11      -7.372890034952e-12      -2.905500630447e-15 
   78       2.098896078381e-10       2.468659052813e-14      -1.729057796799e-13       4.442103249151e-16       4.135456169086e-11      -7.125274132594e-12      -2.775693545033e-15 
   79       2.120122560069e-10       2.566670853947e-14      -2.010790737390e-13       4.558235441138e-16       4.010958477220e-11      -6.888095212959e-12      -2.764015261152e-15 
   80       2.141518868886e-10       2.666776854122e-14      -2.301626322598e-13       4.675958503457e-16       3.891573298152e-11      -6.661053775035e-12      -2.850689534402e-15 
   81       2.163087472448e-10       2.768970092915e-14      -2.601716120631e-13       4.795247587519e-16       3.777058330261e-11      -6.443689386711e-12      -3.013255146037e-15 
   82       2.184827811426e-10       2.873242249094e-14      -2.911223736036e-13       4.916074980823e-16       3.667083162894e-11      -6.235373930336e-12      -3.226475550490e-15 
   83       2.206736142966e-10       2.979583625367e-14      -3.230325373058e-13       5.038410017602e-16       3.561225718226e-11      -6.035304848276e-12      -3.462248522901e-15 
   84       2.228808485573e-10       3.087981666874e-14      -3.559175449820e-13       5.162222415259e-16       3.459074761018e-11      -5.842692015499e-12      -3.694760883106e-15 
   85       2.251050357685e-10       3.198416267891e-14      -3.897795657128e-13       5.287493114904e-16       3.360564747584e-11      -5.657368747552e-12      -3.917132434757e-15 
   86       2.273468373978e-10       3.310863655494e-14      -4.246168455356e-13       5.414205082480e-16       3.265690222110e-11      -5.479270171785e-12      -4.127378410905e-15 
   87       2.296067184525e-10       3.425297747325e-14      -4.604270364743e-13       5.542340011461e-16       3.174402934988e-11      -5.308245157743e-12      -4.323407555516e-15 
   88       2.318849370341e-10       3.541690111695e-14      -4.972071941375e-13       5.671878291072e-16       3.086610067325e-11      -5.144052816956e-12      -4.503019923544e-15 
   89       2.341815338935e-10       3.660009927688e-14      -5.349537753175e-13       5.802798974516e-16       3.002172455459e-11      -4.986359002734e-12      -4.663904680995e-15 
   90       2.364963219850e-10       3.780223945263e-14      -5.736626355881e-13       5.935079747200e-16       2.920902815469e-11      -4.834732809963e-12      -4.803637904998e-15 
   91       2.388288760213e-10       3.902296445360e-14      -6.133290269034e-13       6.068696894959e-16       2.842563967686e-11      -4.688643074893e-12      -4.919680383877e-15 
   92       2.411785220278e-10       4.026189200002e-14      -6.539475951962e-13       6.203625272277e-16       2.766867061209e-11      -4.547454874937e-12      -5.009375417217e-15 
   93       2.435446459465e-10       4.151863101448e-14      -6.955113971089e-13       6.339846301521e-16       2.693540222178e-11      -4.410580690812e-12      -5.070884276615e-15 
   94       2.459276952281e-10       4.279283416593e-14      -7.380087862381e-13       6.477373415836e-16       2.622550165507e-11      -4.277967501975e-12      -5.106158305762e-15 
   95       2.483283092678e-10       4.408415252737e-14      -7.814260519618e-13       6.616230401917e-16       2.553910785961e-11      -4.149676819726e-12      -5.118411836906e-15 
   96       2.507470077938e-10       4.539221942204e-14      -8.257483429261e-13       6.756443787380e-16       2.487614906242e-11      -4.025735193661e-12      -5.111234887299e-15 
   97       2.531841848018e-10       4.671665025345e-14      -8.709596511800e-13       6.898042919225e-16       2.423633468200e-11      -3.906132834495e-12      -5.088603830370e-15 
   98       2.556401024886e-10       4.805704233558e-14      -9.170427963091e-13       7.041060042306e-16       2.361914724037e-11      -3.790822236881e-12      -5.054892066918e-15 
   99       2.581148851868e-10       4.941297472304e-14      -9.639794095702e-13       7.185530377789e-16       2.302383427517e-11      -3.679716802224e-12      -5.014880696287e-15 
  100       2.606085132983e-10       5.078400804115e-14      -1.011749918025e-12       7.331492201624e-16       2.244940025172e-11      -3.572689461501e-12      -4.973769187558e-15 
  101       2.631208172292e-10       5.216968431616e-14      -1.060333528676e-12       7.478986923004e-16       2.189459847510e-11      -3.469571298081e-12      -4.937186050724e-15 
  102       2.656514713231e-10       5.356952680531e-14      -1.109708212599e-12       7.628059162835e-16       2.135792300226e-11      -3.370150170540e-12      -4.911199507880e-15 
  103       2.681999877961e-10       5.498303982707e-14      -1.159850689076e-12       7.778756832199e-16       2.083760055402e-11      -3.274169335482e-12      -4.902328164404e-15 
  104       2.707659292406e-10       5.640969691483e-14      -1.210738637076e-12       7.931120917760e-16       2.033199414644e-11      -3.181384230718e-12      -4.915988699203e-15 
  105       2.733495918981e-10       5.784890382162e-14      -1.262357704087e-12       8.085153097513e-16       1.984089350193e-11      -3.091744526915e-12      -4.951577134481e-15 
  106       2.759514038075e-10       5.930003017798e-14      -1.314695418899e-12       8.240843876314e-16       1.936438468714e-11      -3.005234215501e-12      -5.006739918145e-15 
  107       2.785717108582e-10       6.076242042746e-14      -1.367739057322e-12       8.398182454057e-16       1.890245043932e-11      -2.921814915218e-12      -5.078871144442e-15 
