# dimensionless total lensed [l(l+1)/2pi] C_l's
# for l=2 to 3000, i.e. number of multipoles equal to 2999
#
# -> if you prefer output in CAMB/HealPix/LensPix units/order, set 'format' to 'camb' in input file
# -> if you don't want to see such a header, set 'headers' to 'no' in input file
# -> for CMB lensing (phi), these are C_l^phi-phi for the lensing potential.
#    Remember the conversion factors:
#    C_l^dd (deflection) = l(l+1) C_l^phi-phi
#    C_l^gg (shear/convergence) = 1/4 (l(l+1))^2 C_l^phi-phi
#
# 1:l     2:TT                     3:EE                     4:TE                     5:BB                     6:phiphi                 7:TPhi                   8:Ephi               
    2       5.188594080369e-10       2.553353595105e-15       6.563286844449e-13       4.071387216703e-19       2.351359497220e-08      -2.658854093122e-09      -1.857084044839e-12 
    3       3.809600901895e-10       4.872883663444e-15       6.339571608153e-13       8.149979499039e-19       1.395861829154e-08      -1.748334424500e-09      -1.510352186400e-12 
    4       3.059238227813e-10       7.119866944619e-15       6.029128446801e-13       1.359896090927e-18       9.639338234290e-09      -1.269336649084e-09      -1.275637150053e-12 
    5       2.591920504172e-10       8.582096947592e-15       5.596996344762e-13       2.042698120202e-18       7.161646062365e-09      -9.764628768102e-10      -1.072205131798e-12 
    6       2.274223385576e-10       8.934793247579e-15       5.063780241469e-13       2.864406665833e-18       5.560967816696e-09      -7.803567931708e-10      -8.800904716225e-13 
    7       2.045767161198e-10       8.258711154462e-15       4.489016484944e-13       3.826115013894e-18       4.459747533218e-09      -6.412704700339e-10      -7.016235457855e-13 
    8       1.875585353864e-10       6.881192681383e-15       3.915262982470e-13       4.928955801200e-18       3.669178183322e-09      -5.383614088824e-10      -5.397603449189e-13 
    9       1.745365111532e-10       5.214530355680e-15       3.371619793381e-13       6.174047787789e-18       3.081684165041e-09      -4.597404399722e-10      -3.967603090655e-13 
   10       1.644088026886e-10       3.624155959201e-15       2.876338588097e-13       7.562443205492e-18       2.631971671988e-09      -3.980528272279e-10      -2.739759659325e-13 
   11       1.564339348230e-10       2.351297396777e-15       2.439996180630e-13       9.095078171396e-18       1.991685388120e-09      -3.301453794417e-10      -1.725256445668e-13 
   12       1.500651667603e-10       1.492511186937e-15       2.068901260922e-13       1.077272853554e-17       1.725408882545e-09      -2.905414871005e-10      -9.128809053005e-14 
   13       1.449831734252e-10       1.022627575550e-15       1.765555085646e-13       1.259597330548e-17       1.508928698909e-09      -2.576326039480e-10      -2.900842059602e-14 
   14       1.409420305481e-10       8.411377840343e-16       1.529747111497e-13       1.456516746567e-17       1.330449036027e-09      -2.300850457621e-10       1.527751365992e-14 
   15       1.376885137025e-10       8.227439815756e-16       1.359339442676e-13       1.668042560073e-17       1.181499236760e-09      -2.065723816811e-10       4.398021193786e-14 
   16       1.350920259648e-10       8.577452092977e-16       1.249392340221e-13       1.894161725575e-17       1.055861858116e-09      -1.864268724904e-10       5.894591269735e-14 
   17       1.330628976136e-10       8.749488828269e-16       1.192275359669e-13       2.134837444423e-17       9.488919983365e-10      -1.688848907315e-10       6.297539915527e-14 
   18       1.314579195939e-10       8.457256098319e-16       1.179430920743e-13       2.390010493381e-17       8.566196654393e-10      -1.536198127382e-10       5.851539267455e-14 
   19       1.302580914893e-10       7.797998638534e-16       1.203681326378e-13       2.659605426540e-17       7.776075000425e-10      -1.404241367468e-10       4.780030968418e-14 
   20       1.293789756787e-10       7.019572589678e-16       1.253986748435e-13       2.943527908480e-17       7.084065764327e-10      -1.286911719164e-10       3.376182149785e-14 
   21       1.287894652887e-10       6.372877621626e-16       1.322629200010e-13       3.241678539490e-17       6.478075393507e-10      -1.182715806841e-10       1.827313237280e-14 
   22       1.284203957005e-10       6.104530683621e-16       1.401198500035e-13       3.553949386527e-17       5.943123735179e-10      -1.089993979849e-10       3.051117488416e-15 
   23       1.282636038283e-10       6.252918093208e-16       1.483949027518e-13       3.880239018161e-17       5.471060392718e-10      -1.007687283508e-10      -1.067049569213e-14 
   24       1.282922570120e-10       6.755238253641e-16       1.565404574563e-13       4.220449050727e-17       5.049959557966e-10      -9.338842617144e-11      -2.185112120329e-14 
   25       1.284886092767e-10       7.481169220591e-16       1.642483832117e-13       4.574500018757e-17       4.674350629746e-10      -8.675462369390e-11      -3.002845197342e-14 
   26       1.288147369544e-10       8.264895422433e-16       1.712899604454e-13       4.942327332840e-17       4.336995798842e-10      -8.073037453151e-11      -3.505543306190e-14 
   27       1.292669142811e-10       9.018987971665e-16       1.775920686482e-13       5.323894159048e-17       4.033489411669e-10      -7.526423882936e-11      -3.708123871496e-14 
   28       1.298354402788e-10       9.690674191662e-16       1.831569758489e-13       5.719188647011e-17       3.758219633582e-10      -7.029253525808e-11      -3.647886453090e-14 
   29       1.305191078350e-10       1.031697310906e-15       1.880654388352e-13       6.128234257304e-17       3.509565005452e-10      -6.578705217775e-11      -3.367392924539e-14 
   30       1.312986550145e-10       1.097744515259e-15       1.924576319715e-13       6.551086281290e-17       3.284633903343e-10      -6.168391303234e-11      -2.927026392409e-14 
   31       1.321395804354e-10       1.176047629734e-15       1.965065857966e-13       6.987830575610e-17       3.078561897594e-10      -5.788577405107e-11      -2.400414704232e-14 
   32       1.330447223406e-10       1.271160687021e-15       2.003479957123e-13       7.438580906094e-17       2.890153836514e-10      -5.438145893307e-11      -1.837713278051e-14 
   33       1.340178710565e-10       1.386673928122e-15       2.041279598713e-13       7.903485416664e-17       2.717963578639e-10      -5.116447048924e-11      -1.290350891349e-14 
   34       1.350529772069e-10       1.525430326844e-15       2.079966187342e-13       8.382723025760e-17       2.559439458262e-10      -4.820744283477e-11      -8.121706549080e-15 
   35       1.361497695749e-10       1.685586280755e-15       2.120169556524e-13       8.876478715054e-17       2.413685666330e-10      -4.549154657813e-11      -4.276952462178e-15 
   36       1.373013202657e-10       1.863058539160e-15       2.162237685572e-13       9.384963412286e-17       2.279445955663e-10      -4.298324675088e-11      -1.529449430695e-15 
   37       1.384947518644e-10       2.053634705400e-15       2.206291239077e-13       9.908405418705e-17       2.154870886550e-10      -4.063860395112e-11       3.421443575857e-18 
   38       1.397319772488e-10       2.256982279794e-15       2.251615190884e-13       1.044699159221e-16       2.039590864765e-10      -3.845217496288e-11       3.850552738051e-16 
   39       1.410143119898e-10       2.473913136029e-15       2.297035452122e-13       1.100090860176e-16       1.933199459621e-10      -3.642188082013e-11      -2.270034266867e-16 
   40       1.423360206057e-10       2.705315843939e-15       2.341051920133e-13       1.157035943545e-16       1.834624414572e-10      -3.453465506357e-11      -1.612151418292e-15 
   41       1.436879568711e-10       2.951951005843e-15       2.381992742255e-13       1.215554050707e-16       1.742492056146e-10      -3.277155738439e-11      -3.509643079939e-15 
   42       1.450716037462e-10       3.213746617459e-15       2.418593568347e-13       1.275656260834e-16       1.656502151811e-10      -3.112748375019e-11      -5.707304135214e-15 
   43       1.464884179966e-10       3.490280688258e-15       2.449567609926e-13       1.337350520716e-16       1.576403319869e-10      -2.959621520518e-11      -7.974000576528e-15 
   44       1.479354812882e-10       3.780960669712e-15       2.473433418422e-13       1.400643669311e-16       1.501581189722e-10      -2.816431818147e-11      -1.003200804207e-14 
   45       1.494079447068e-10       4.085233321073e-15       2.488777008646e-13       1.465539832149e-16       1.431272492402e-10      -2.681564173149e-11      -1.161391988974e-14 
   46       1.509081910329e-10       4.403312638561e-15       2.495157686729e-13       1.532035278035e-16       1.365351459916e-10      -2.554774500564e-11      -1.265994853504e-14 
   47       1.524387206511e-10       4.735652575118e-15       2.492454254482e-13       1.600121847199e-16       1.303729584667e-10      -2.435941908653e-11      -1.317506968872e-14 
   48       1.539993028754e-10       5.082748702821e-15       2.480619931775e-13       1.669788133182e-16       1.246118764451e-10      -2.324578389284e-11      -1.317530883108e-14 
   49       1.555867339180e-10       5.445140895783e-15       2.459687051027e-13       1.741019292028e-16       1.192016516421e-10      -2.219801429228e-11      -1.268850349727e-14 
   50       1.571965909074e-10       5.823466685174e-15       2.429794150266e-13       1.813797689175e-16       1.140854962521e-10      -2.120604842953e-11      -1.176313563326e-14 
   51       1.588296167406e-10       6.218632173523e-15       2.391265030864e-13       1.888105489793e-16       1.092529764765e-10      -2.026821479261e-11      -1.049588651516e-14 
   52       1.604866499610e-10       6.631692150742e-15       2.344559273847e-13       1.963922441733e-16       1.046989204885e-10      -1.938374487439e-11      -9.012878958354e-15 
   53       1.621666355971e-10       7.063808424034e-15       2.290257329054e-13       2.041224951487e-16       1.004076050081e-10      -1.854988897047e-11      -7.463375917623e-15 
   54       1.638664770627e-10       7.516254885371e-15       2.229066263682e-13       2.119985932792e-16       9.635204738737e-11      -1.776178263170e-11      -6.020922540645e-15 
   55       1.655825523113e-10       7.990169631274e-15       2.161628276964e-13       2.200178597923e-16       9.250211259006e-11      -1.701392843961e-11      -4.847557300883e-15 
   56       1.673160426437e-10       8.485727602404e-15       2.087877370024e-13       2.281789281314e-16       8.885281429183e-11      -1.630537833961e-11      -3.973417748952e-15 
   57       1.690686682831e-10       9.002771285967e-15       2.007532928028e-13       2.364807536426e-16       8.540180441284e-11      -1.563560479172e-11      -3.389226641546e-15 
   58       1.708410586566e-10       9.541040972345e-15       1.920281058090e-13       2.449222474351e-16       8.214081765768e-11      -1.500292916624e-11      -3.080312106586e-15 
   59       1.726326691376e-10       1.010016996747e-14       1.825772653379e-13       2.535022766026e-16       7.905530703825e-11      -1.440445113087e-11      -3.026310829615e-15 
   60       1.744416977868e-10       1.067967980520e-14       1.723621457223e-13       2.622196644459e-16       7.612407939650e-11      -1.383597803797e-11      -3.200871240207e-15 
   61       1.762660817898e-10       1.127913295917e-14       1.613426636591e-13       2.710735833241e-16       7.332512495296e-11      -1.329317330043e-11      -3.570667333253e-15 
   62       1.781069364842e-10       1.189864186502e-14       1.494850802995e-13       2.800648357488e-16       7.065545956905e-11      -1.277546247995e-11      -4.092852942934e-15 
   63       1.799657440285e-10       1.253846617789e-14       1.367556148638e-13       2.891948625480e-16       6.811510979143e-11      -1.228288264864e-11      -4.716506751715e-15 
   64       1.818432937928e-10       1.319886556064e-14       1.231180347103e-13       2.984653880401e-16       6.570114721993e-11      -1.181490946492e-11      -5.382958858216e-15 
   65       1.837396333576e-10       1.388009989359e-14       1.085335395117e-13       3.078784327136e-16       6.340752056209e-11      -1.137042523826e-11      -6.025472090572e-15 
   66       1.856540195138e-10       1.458242948416e-14       9.296064543307e-14       3.174363259073e-16       6.122488768771e-11      -1.094768699403e-11      -6.568923319809e-15 
   67       1.875848692624e-10       1.530611527663e-14       7.635506930805e-14       3.271417184897e-16       5.914044768340e-11      -1.054429453821e-11      -6.929484773208e-15 
   68       1.895305128660e-10       1.605138126590e-14       5.867970522066e-14       3.369972919318e-16       5.714133792638e-11      -1.015782815381e-11      -7.036073563820e-15 
   69       1.914917397265e-10       1.681829242600e-14       3.993716057880e-14       3.470047887252e-16       5.522600002473e-11      -9.787983120740e-12      -6.900459585496e-15 
   70       1.934696827131e-10       1.760685230980e-14       2.014363492699e-14       3.571658073770e-16       5.339482579303e-11      -9.434812323285e-12      -6.560856090270e-15 
   71       1.954650337754e-10       1.841703791302e-14      -6.804493982682e-16       3.674820934617e-16       5.164672061278e-11      -9.098080343197e-12      -6.061642164157e-15 
   72       1.974780154564e-10       1.924879891733e-14      -2.251030497370e-14       3.779555445359e-16       4.997902666392e-11      -8.777248650620e-12      -5.453600772392e-15 
   73       1.995083524039e-10       2.010205693341e-14      -4.531663699449e-14       3.885882150536e-16       4.838744615637e-11      -8.471460794999e-12      -4.794156804672e-15 
   74       2.015552428839e-10       2.097670474401e-14      -6.906550097949e-14       3.993823212810e-16       4.686596456151e-11      -8.179527595993e-12      -4.147615120391e-15 
   75       2.036173302919e-10       2.187260554698e-14      -9.371816047645e-14       4.103402462118e-16       4.540677384373e-11      -7.899912334388e-12      -3.585398593884e-15 
   76       2.056933000808e-10       2.278962167858e-14      -1.192406290542e-13       4.214638690743e-16       4.400220429796e-11      -7.631108731961e-12      -3.170270343905e-15 
   77       2.077838591842e-10       2.372770850331e-14      -1.456346196656e-13       4.327524018328e-16       4.265109646393e-11      -7.372887201670e-12      -2.905152580912e-15 
   78       2.098900674707e-10       2.468683634968e-14      -1.729120067507e-13       4.442041652590e-16       4.135345708679e-11      -7.125250007929e-12      -2.775363748105e-15 
   79       2.120127289419e-10       2.566696239893e-14      -2.010856980084e-13       4.558172205485e-16       4.010851858739e-11      -6.888051993397e-12      -2.763717448335e-15 
   80       2.141523760688e-10       2.666803053268e-14      -2.301696906866e-13       4.675893603868e-16       3.891470348188e-11      -6.660993824346e-12      -2.850432072073e-15 
   81       2.163092541291e-10       2.768997118042e-14      -2.601791278712e-13       4.795181000144e-16       3.776958880132e-11      -6.443615236030e-12      -3.013040425370e-15 
   82       2.184833055442e-10       2.873270116715e-14      -2.911303547753e-13       4.916006682914e-16       3.666987051129e-11      -6.235288278051e-12      -3.226299357825e-15 
   83       2.206741542157e-10       2.979612356095e-14      -3.230409750292e-13       5.038339987635e-16       3.561132793150e-11      -6.035210559726e-12      -3.462099390547e-15 
   84       2.228814004322e-10       3.088011284656e-14      -3.559264159382e-13       5.162150632919e-16       3.458984881122e-11      -5.842592043134e-12      -3.694621309236e-15 
   85       2.251055960689e-10       3.198446795604e-14      -3.897888467223e-13       5.287419560650e-16       3.360477774605e-11      -5.657265797720e-12      -3.916986109417e-15 
   86       2.273474030892e-10       3.310895113592e-14      -4.246265178178e-13       5.414129737465e-16       3.265606020378e-11      -5.479166582347e-12      -4.127212400360e-15 
   87       2.296072870609e-10       3.425330153573e-14      -4.604370862184e-13       5.542262857586e-16       3.174321373040e-11      -5.308142849796e-12      -4.323212698489e-15 
   88       2.318855067120e-10       3.541723480896e-14      -4.972176130924e-13       5.671799311039e-16       3.086531019588e-11      -5.143953245040e-12      -4.502791239629e-15 
   89       2.341821034879e-10       3.660044271395e-14      -5.349645613986e-13       5.802718151884e-16       3.002095803992e-11      -4.986263103509e-12      -4.663641791262e-15 
   90       2.364968911078e-10       3.780259271496e-14      -5.736737935036e-13       5.934997066437e-16       2.920828451772e-11      -4.834640949366e-12      -4.803345464778e-15 
   91       2.388294451213e-10       3.902332758300e-14      -6.133405687975e-13       6.068612341501e-16       2.842491794570e-11      -4.688554993771e-12      -4.919368527725e-15 
   92       2.411790924650e-10       4.026226499690e-14      -6.539595413114e-13       6.203538832589e-16       2.766796994731e-11      -4.547369633153e-12      -5.009060216065e-15 
   93       2.435452198801e-10       4.151901384095e-14      -6.955237744565e-13       6.339757962842e-16       2.693472190660e-11      -4.410496766822e-12      -5.070586658856e-15 
   94       2.459282749092e-10       4.279322676878e-14      -7.380216209134e-13       6.477283164948e-16       2.622484099156e-11      -4.277883388858e-12      -5.105898079410e-15 
   95       2.483288968412e-10       4.408455484408e-14      -7.814393668878e-13       6.616138224747e-16       2.553846614583e-11      -4.149591196955e-12      -5.118205892981e-15 
   96       2.507476052794e-10       4.539263138073e-14      -8.257621575127e-13       6.756349668897e-16       2.487552559840e-11      -4.025646949161e-12      -5.111096876857e-15 
   97       2.531847940755e-10       4.671707177287e-14      -8.709739809729e-13       6.897946843337e-16       2.423572877585e-11      -3.906041087333e-12      -5.088543832469e-15 
   98       2.556407252627e-10       4.805747332514e-14      -9.170576526299e-13       7.040961991748e-16       2.361855821468e-11      -3.790726360584e-12      -5.054916247509e-15 
   99       2.581155229896e-10       4.941341508276e-14      -9.639947991467e-13       7.185430334014e-16       2.302326147361e-11      -3.679616448731e-12      -5.014990958039e-15 
  100       2.606091674537e-10       5.078445766170e-14      -1.011765842613e-12       7.331390144689e-16       2.244884304589e-11      -3.572584585747e-12      -4.973962810612e-15 
  101       2.631214888349e-10       5.217014307885e-14      -1.060349984668e-12       7.478882831453e-16       2.189405627161e-11      -3.469462183207e-12      -4.937455324380e-15 
  102       2.656521612290e-10       5.356999458216e-14      -1.109725190630e-12       7.627953013576e-16       2.135739524996e-11      -3.370037453742e-12      -4.911531353210e-15 
  103       2.682006965813e-10       5.498351648076e-14      -1.159868173615e-12       7.778648600384e-16       2.083708675158e-11      -3.274054034483e-12      -4.902703747798e-15 
  104       2.707666572306e-10       5.641018229958e-14      -1.210756607183e-12       7.931010577061e-16       2.033149383911e-11      -3.181267682900e-12      -4.916384447154e-15 
  105       2.733503393048e-10       5.784939778649e-14      -1.262376137864e-12       8.085040621657e-16       1.984040624403e-11      -3.091628051608e-12      -4.951970187197e-15 
  106       2.759521707624e-10       5.930053256799e-14      -1.314714294737e-12       8.240729239527e-16       1.936391003457e-11      -3.005119016711e-12      -5.007109729836e-15 
  107       2.785724974056e-10       6.076293108409e-14      -1.367758354011e-12       8.398065631118e-16       1.890198795282e-11      -2.921702068676e-12      -5.079199733198e-15 
