# dimensionless total [l(l+1)/2pi] C_l's
# for l=2 to 3500, i.e. number of multipoles equal to 3499
#
# -> if you prefer output in CAMB/HealPix/LensPix units/order, set 'format' to 'camb' in input file
# -> if you don't want to see such a header, set 'headers' to 'no' in input file
# -> for CMB lensing (phi), these are C_l^phi-phi for the lensing potential.
#    Remember the conversion factors:
#    C_l^dd (deflection) = l(l+1) C_l^phi-phi
#    C_l^gg (shear/convergence) = 1/4 (l(l+1))^2 C_l^phi-phi
#
# 1:l     2:TT                     3:EE                     4:TE                     5:BB                     6:phiphi                 7:TPhi                   8:Ephi               
    2       5.188587604477e-10       2.552946456923e-15       6.563286928745e-13       0.000000000000e+00       2.351359497220e-08      -2.658854093122e-09      -1.857084044839e-12 
    3       3.809587866529e-10       4.872068670826e-15       6.339571981849e-13       0.000000000000e+00       1.395861829154e-08      -1.748334424500e-09      -1.510352186400e-12 
    4       3.059216320997e-10       7.118507074773e-15       6.029129513072e-13       0.000000000000e+00       9.639338234290e-09      -1.269336649084e-09      -1.275637150053e-12 
    5       2.591887314906e-10       8.580054339539e-15       5.596998752711e-13       0.000000000000e+00       7.161646062365e-09      -9.764628768102e-10      -1.072205131798e-12 
    6       2.274176389300e-10       8.931929087194e-15       5.063784927087e-13       0.000000000000e+00       5.560967816696e-09      -7.803567931708e-10      -8.800904716225e-13 
    7       2.045703711383e-10       8.254885614333e-15       4.489024700114e-13       0.000000000000e+00       4.459747533218e-09      -6.412704700339e-10      -7.016235457855e-13 
    8       1.875502680335e-10       6.876264918796e-15       3.915276311050e-13       0.000000000000e+00       3.669178183322e-09      -5.383614088824e-10      -5.397603449189e-13 
    9       1.745260325781e-10       5.208358568576e-15       3.371640154172e-13       0.000000000000e+00       3.081684165041e-09      -4.597404399722e-10      -3.967603090655e-13 
   10       1.643958134369e-10       3.616597496480e-15       2.876368225179e-13       0.000000000000e+00       2.631971671988e-09      -3.980528272279e-10      -2.739759659325e-13 
   11       1.564181267275e-10       2.342208915940e-15       2.440037642283e-13       0.000000000000e+00       1.991685388120e-09      -3.301453794417e-10      -1.725256445668e-13 
   12       1.500462254283e-10       1.481748849127e-15       2.068957368981e-13       0.000000000000e+00       1.725408882545e-09      -2.905414871005e-10      -9.128809053005e-14 
   13       1.449607812285e-10       1.010047265552e-15       1.765628897697e-13       0.000000000000e+00       1.508928698909e-09      -2.576326039480e-10      -2.900842059602e-14 
   14       1.409158699975e-10       8.265953410173e-16       1.529841878787e-13       0.000000000000e+00       1.330449036027e-09      -2.300850457621e-10       1.527751365992e-14 
   15       1.376582710707e-10       8.060954253591e-16       1.359458566906e-13       0.000000000000e+00       1.181499236760e-09      -2.065723816811e-10       4.398021193786e-14 
   16       1.350573950070e-10       8.388469467642e-16       1.249539332552e-13       0.000000000000e+00       1.055861858116e-09      -1.864268724904e-10       5.894591269735e-14 
   17       1.330235832279e-10       8.536578798486e-16       1.192453805256e-13       0.000000000000e+00       9.488919983365e-10      -1.688848907315e-10       6.297539915527e-14 
   18       1.314136413446e-10       8.218995238547e-16       1.179644450152e-13       0.000000000000e+00       8.566196654393e-10      -1.536198127382e-10       5.851539267455e-14 
   19       1.302085863623e-10       7.532970775044e-16       1.203933607301e-13       0.000000000000e+00       7.776075000425e-10      -1.404241367468e-10       4.780030968418e-14 
   20       1.293240011988e-10       6.726369352141e-16       1.254281472023e-13       0.000000000000e+00       7.084065764327e-10      -1.286911719164e-10       3.376182149785e-14 
   21       1.287288008628e-10       6.050097208029e-16       1.322970107022e-13       0.000000000000e+00       6.478075393507e-10      -1.182715806841e-10       1.827313237280e-14 
   22       1.283538444240e-10       5.750776947912e-16       1.401589399282e-13       0.000000000000e+00       5.943123735179e-10      -1.089993979849e-10       3.051117488416e-15 
   23       1.281909923063e-10       5.866798060706e-16       1.484393853504e-13       0.000000000000e+00       5.471060392718e-10      -1.007687283508e-10      -1.067049569213e-14 
   24       1.282134356417e-10       6.335359944349e-16       1.565907437497e-13       0.000000000000e+00       5.049959557966e-10      -9.338842617144e-11      -2.185112120329e-14 
   25       1.284034503510e-10       7.026138307450e-16       1.643049103464e-13       0.000000000000e+00       4.674350629746e-10      -8.675462369390e-11      -3.002845197342e-14 
   26       1.287231333292e-10       7.773312106020e-16       1.713531995056e-13       0.000000000000e+00       4.336995798842e-10      -8.073037453151e-11      -3.505543306190e-14 
   27       1.291687762036e-10       8.489443309883e-16       1.776625348750e-13       0.000000000000e+00       4.033489411669e-10      -7.526423882936e-11      -3.708123871496e-14 
   28       1.297306925684e-10       9.121746732664e-16       1.832352381358e-13       0.000000000000e+00       3.758219633582e-10      -7.029253525808e-11      -3.647886453090e-14 
   29       1.304076852959e-10       9.707226651515e-16       1.881521291233e-13       0.000000000000e+00       3.509565005452e-10      -6.578705217775e-11      -3.367392924539e-14 
   30       1.311804985680e-10       1.032542539977e-15       1.925534556529e-13       0.000000000000e+00       3.284633903343e-10      -6.168391303234e-11      -2.927026392409e-14 
   31       1.320146332943e-10       1.106470817290e-15       1.966123309931e-13       0.000000000000e+00       3.078561897594e-10      -5.788577405107e-11      -2.400414704232e-14 
   32       1.329129257214e-10       1.197059610055e-15       2.004645362561e-13       0.000000000000e+00       2.890153836514e-10      -5.438145893307e-11      -1.837713278051e-14 
   33       1.338791594973e-10       1.307897101407e-15       2.042562632492e-13       0.000000000000e+00       2.717963578639e-10      -5.116447048924e-11      -1.290350891349e-14 
   34       1.349072742702e-10       1.441824129954e-15       2.081377525403e-13       0.000000000000e+00       2.559439458262e-10      -4.820744283477e-11      -8.121706549080e-15 
   35       1.359969858867e-10       1.596995524666e-15       2.121720812663e-13       0.000000000000e+00       2.413685666330e-10      -4.549154657813e-11      -4.276952462178e-15 
   36       1.371413494411e-10       1.769326613273e-15       2.163941436033e-13       0.000000000000e+00       2.279445955663e-10      -4.298324675088e-11      -1.529449430695e-15 
   37       1.383274674633e-10       1.954603798358e-15       2.208161017841e-13       0.000000000000e+00       2.154870886550e-10      -4.063860395112e-11       3.421443575857e-18 
   38       1.395572365142e-10       2.152494421711e-15       2.253665262487e-13       0.000000000000e+00       2.039590864765e-10      -3.845217496288e-11       3.850552738051e-16 
   39       1.408319546705e-10       2.363810719936e-15       2.299280730539e-13       0.000000000000e+00       1.933199459621e-10      -3.642188082013e-11      -2.270034266867e-16 
   40       1.421458657558e-10       2.589441958335e-15       2.343507942594e-13       0.000000000000e+00       1.834624414572e-10      -3.453465506357e-11      -1.612151418292e-15 
   41       1.434898024694e-10       2.830149943305e-15       2.384675567836e-13       0.000000000000e+00       1.742492056146e-10      -3.277155738439e-11      -3.509643079939e-15 
   42       1.448652362664e-10       3.085864921548e-15       2.421519430317e-13       0.000000000000e+00       1.656502151811e-10      -3.112748375019e-11      -5.707304135214e-15 
   43       1.462736149955e-10       3.356167878500e-15       2.452752727988e-13       0.000000000000e+00       1.576403319869e-10      -2.959621520518e-11      -7.974000576528e-15 
   44       1.477120113353e-10       3.640469864343e-15       2.476893867144e-13       0.000000000000e+00       1.501581189722e-10      -2.816431818147e-11      -1.003200804207e-14 
   45       1.491755697591e-10       3.938221668892e-15       2.492528559127e-13       0.000000000000e+00       1.431272492402e-10      -2.681564173149e-11      -1.161391988974e-14 
   46       1.506666769052e-10       4.249641027700e-15       2.499215578790e-13       0.000000000000e+00       1.365351459916e-10      -2.554774500564e-11      -1.265994853504e-14 
   47       1.521878418882e-10       4.575185908205e-15       2.496833002849e-13       0.000000000000e+00       1.303729584667e-10      -2.435941908653e-11      -1.317506968872e-14 
   48       1.537388456152e-10       4.915356400587e-15       2.485333139133e-13       0.000000000000e+00       1.246118764451e-10      -2.324578389284e-11      -1.317530883108e-14 
   49       1.553164989379e-10       5.270697422634e-15       2.464747211380e-13       0.000000000000e+00       1.192016516421e-10      -2.219801429228e-11      -1.268850349727e-14 
   50       1.569163967786e-10       5.641851489539e-15       2.435212519779e-13       0.000000000000e+00       1.140854962521e-10      -2.120604842953e-11      -1.176313563326e-14 
   51       1.585393029137e-10       6.029727634345e-15       2.397051745221e-13       0.000000000000e+00       1.092529764765e-10      -2.026821479261e-11      -1.049588651516e-14 
   52       1.601860802186e-10       6.435383014566e-15       2.350723269250e-13       0.000000000000e+00       1.046989204885e-10      -1.938374487439e-11      -9.012878958354e-15 
   53       1.618557017576e-10       6.859981795505e-15       2.296806185982e-13       0.000000000000e+00       1.004076050081e-10      -1.854988897047e-11      -7.463375917623e-15 
   54       1.635451028639e-10       7.304800211116e-15       2.236006044581e-13       0.000000000000e+00       9.635204738737e-11      -1.776178263170e-11      -6.020922540645e-15 
   55       1.652506935577e-10       7.770978118635e-15       2.168963527354e-13       0.000000000000e+00       9.250211259006e-11      -1.701392843961e-11      -4.847557300883e-15 
   56       1.669736746442e-10       8.258689793477e-15       2.095611671233e-13       0.000000000000e+00       8.885281429183e-11      -1.630537833961e-11      -3.973417748952e-15 
   57       1.687157831564e-10       8.767776006486e-15       2.015669024711e-13       0.000000000000e+00       8.540180441284e-11      -1.563560479172e-11      -3.389226641546e-15 
   58       1.704776663041e-10       9.297974771179e-15       1.928820828821e-13       0.000000000000e+00       8.214081765768e-11      -1.500292916624e-11      -3.080312106586e-15 
   59       1.722587982429e-10       9.848916527741e-15       1.834717081780e-13       0.000000000000e+00       7.905530703825e-11      -1.440445113087e-11      -3.026310829615e-15 
   60       1.740573968439e-10       1.042011932702e-14       1.732970603638e-13       0.000000000000e+00       7.612407939650e-11      -1.383597803797e-11      -3.200871240207e-15 
   61       1.758714154061e-10       1.101114197845e-14       1.623179726474e-13       0.000000000000e+00       7.332512495296e-11      -1.329317330043e-11      -3.570667333253e-15 
   62       1.777019662114e-10       1.162209455894e-14       1.505006694858e-13       0.000000000000e+00       7.065545956905e-11      -1.277546247995e-11      -4.092852942934e-15 
   63       1.795505212260e-10       1.225323446862e-14       1.378113508984e-13       0.000000000000e+00       6.811510979143e-11      -1.228288264864e-11      -4.716506751715e-15 
   64       1.814178568153e-10       1.290481877062e-14       1.242137720838e-13       0.000000000000e+00       6.570114721993e-11      -1.181490946492e-11      -5.382958858216e-15 
   65       1.833040046201e-10       1.357710438717e-14       1.096691280198e-13       0.000000000000e+00       6.340752056209e-11      -1.137042523826e-11      -6.025472090572e-15 
   66       1.852082024332e-10       1.427034829565e-14       9.413593806291e-14       0.000000000000e+00       6.122488768771e-11      -1.094768699403e-11      -6.568923319809e-15 
   67       1.871288450753e-10       1.498480772469e-14       7.756993054832e-14       0.000000000000e+00       5.914044768340e-11      -1.054429453821e-11      -6.929484773208e-15 
   68       1.890642396827e-10       1.572070405036e-14       5.993400303461e-14       0.000000000000e+00       5.714133792638e-11      -1.015782815381e-11      -7.036073563820e-15 
   69       1.910151590913e-10       1.647810555158e-14       4.123070457946e-14       0.000000000000e+00       5.522600002473e-11      -9.787983120740e-12      -6.900459585496e-15 
   70       1.929827199645e-10       1.725702114098e-14       2.147615815881e-14       0.000000000000e+00       5.339482579303e-11      -9.434812323285e-12      -6.560856090270e-15 
   71       1.949675961210e-10       1.805743384351e-14       6.907071110050e-16       0.000000000000e+00       5.164672061278e-11      -9.098080343197e-12      -6.061642164157e-15 
   72       1.969699899844e-10       1.887930006417e-14      -2.110094257433e-14       0.000000000000e+00       4.997902666392e-11      -8.777248650620e-12      -5.453600772392e-15 
   73       1.989896040325e-10       1.972254885569e-14      -4.386957996744e-14       0.000000000000e+00       4.838744615637e-11      -8.471460794999e-12      -4.794156804672e-15 
   74       2.010256122467e-10       2.058708118617e-14      -6.758134690957e-14       0.000000000000e+00       4.686596456151e-11      -8.179527595993e-12      -4.147615120391e-15 
   75       2.030766315618e-10       2.147276920682e-14      -9.219759572410e-14       0.000000000000e+00       4.540677384373e-11      -7.899912334388e-12      -3.585398593884e-15 
   76       2.051413261970e-10       2.237948472055e-14      -1.176844532702e-13       0.000000000000e+00       4.400220429796e-11      -7.631108731961e-12      -3.170270343905e-15 
   77       2.072204109905e-10       2.330719220010e-14      -1.440438411221e-13       0.000000000000e+00       4.265109646393e-11      -7.372887201670e-12      -2.905152580912e-15 
   78       2.093149632092e-10       2.425587148053e-14      -1.712878798399e-13       0.000000000000e+00       4.135345708679e-11      -7.125250007929e-12      -2.775363748105e-15 
   79       2.114258067549e-10       2.522548993172e-14      -1.994297402829e-13       0.000000000000e+00       4.010851858739e-11      -6.888051993397e-12      -2.763717448335e-15 
   80       2.135534965914e-10       2.621600232489e-14      -2.284837003572e-13       0.000000000000e+00       3.891470348188e-11      -6.660993824346e-12      -2.850432072073e-15 
   81       2.156983031718e-10       2.722735069901e-14      -2.584652017635e-13       0.000000000000e+00       3.776958880132e-11      -6.443615236030e-12      -3.013040425370e-15 
   82       2.178601968655e-10       2.825946422731e-14      -2.893909067441e-13       0.000000000000e+00       3.666987051129e-11      -6.235288278051e-12      -3.226299357825e-15 
   83       2.200388323855e-10       2.931225908375e-14      -3.212787548309e-13       0.000000000000e+00       3.561132793150e-11      -6.035210559726e-12      -3.462099390547e-15 
   84       2.222338413304e-10       3.038562090187e-14      -3.541445049247e-13       0.000000000000e+00       3.458984881122e-11      -5.842592043134e-12      -3.694621309236e-15 
   85       2.244457996434e-10       3.147934910268e-14      -3.879905785772e-13       0.000000000000e+00       3.360477774605e-11      -5.657265797720e-12      -3.916986109417e-15 
   86       2.266753927312e-10       3.259320304983e-14      -4.228154626062e-13       0.000000000000e+00       3.265606020378e-11      -5.479166582347e-12      -4.127212400360e-15 
   87       2.289231113682e-10       3.372691821675e-14      -4.586170570290e-13       0.000000000000e+00       3.174321373040e-11      -5.308142849796e-12      -4.323212698489e-15 
   88       2.311892413021e-10       3.488020576063e-14      -4.953926727403e-13       0.000000000000e+00       3.086531019588e-11      -5.143953245040e-12      -4.502791239629e-15 
   89       2.334738528594e-10       3.605275209628e-14      -5.331390291894e-13       0.000000000000e+00       3.002095803992e-11      -4.986263103509e-12      -4.663641791262e-15 
   90       2.357767905511e-10       3.724421847006e-14      -5.718522520581e-13       0.000000000000e+00       2.920828451772e-11      -4.834640949366e-12      -4.803345464778e-15 
   91       2.380976626785e-10       3.845424053380e-14      -6.115278709378e-13       0.000000000000e+00       2.842491794570e-11      -4.688554993771e-12      -4.919368527725e-15 
   92       2.404358309382e-10       3.968242791865e-14      -6.521608170072e-13       0.000000000000e+00       2.766796994731e-11      -4.547369633153e-12      -5.009060216065e-15 
   93       2.427907100114e-10       4.092838208477e-14      -6.937444106332e-13       0.000000000000e+00       2.693472190660e-11      -4.410496766822e-12      -5.070586658856e-15 
   94       2.451627404479e-10       4.219175386642e-14      -7.362671550425e-13       0.000000000000e+00       2.622484099156e-11      -4.277883388858e-12      -5.105898079410e-15 
   95       2.475525435664e-10       4.347219383409e-14      -7.797154538798e-13       0.000000000000e+00       2.553846614583e-11      -4.149591196955e-12      -5.118205892981e-15 
   96       2.499606184519e-10       4.476933461709e-14      -8.240745623465e-13       0.000000000000e+00       2.487552559840e-11      -4.025646949161e-12      -5.111096876857e-15 
   97       2.523873358166e-10       4.608279072834e-14      -8.693285710120e-13       0.000000000000e+00       2.423572877585e-11      -3.906041087333e-12      -5.088543832469e-15 
   98       2.548329318605e-10       4.741215838913e-14      -9.154603896272e-13       0.000000000000e+00       2.361855821468e-11      -3.790726360584e-12      -5.054916247509e-15 
   99       2.572975021318e-10       4.875701535391e-14      -9.624517309357e-13       0.000000000000e+00       2.302326147361e-11      -3.679616448731e-12      -5.014990958039e-15 
  100       2.597809953881e-10       5.011692073503e-14      -1.010283094487e-12       0.000000000000e+00       2.244884304589e-11      -3.572584585747e-12      -4.973962810612e-15 
  101       2.622832074568e-10       5.149141482758e-14      -1.058933750449e-12       0.000000000000e+00       2.189405627161e-11      -3.469462183207e-12      -4.937455324380e-15 
  102       2.648037750958e-10       5.288001893410e-14      -1.108381723419e-12       0.000000000000e+00       2.135739524996e-11      -3.370037453742e-12      -4.911531353210e-15 
  103       2.673421698542e-10       5.428223518940e-14      -1.158603776237e-12       0.000000000000e+00       2.083708675158e-11      -3.274054034483e-12      -4.902703747798e-15 
  104       2.698979204648e-10       5.569753684821e-14      -1.209577664239e-12       0.000000000000e+00       2.033149383911e-11      -3.181267682900e-12      -4.916384447154e-15 
  105       2.724713274599e-10       5.712533803143e-14      -1.261289279688e-12       0.000000000000e+00       1.984040624403e-11      -3.091628051608e-12      -4.951970187197e-15 
  106       2.750628340932e-10       5.856501954733e-14      -1.313726446767e-12       0.000000000000e+00       1.936391003457e-11      -3.005119016711e-12      -5.007109729836e-15 
  107       2.776728028450e-10       6.001593778708e-14      -1.366876745975e-12       0.000000000000e+00       1.890198795282e-11      -2.921702068676e-12      -5.079199733198e-15 
