# dimensionless total lensed [l(l+1)/2pi] C_l's
# for l=2 to 3000, i.e. number of multipoles equal to 2999
#
# -> if you prefer output in CAMB/HealPix/LensPix units/order, set 'format' to 'camb' in input file
# -> if you don't want to see such a header, set 'headers' to 'no' in input file
# -> for CMB lensing (phi), these are C_l^phi-phi for the lensing potential.
#    Remember the conversion factors:
#    C_l^dd (deflection) = l(l+1) C_l^phi-phi
#    C_l^gg (shear/convergence) = 1/4 (l(l+1))^2 C_l^phi-phi
#
# 1:l     2:TT                     3:EE                     4:TE                     5:BB                     6:phiphi                 7:TPhi                   8:Ephi               
    2       3.514241910168e-10       9.666425709025e-16       3.536427636601e-13       7.511311735458e-19       1.891111790088e-08      -1.982282391259e-09      -1.065176476939e-12 
    3       2.666619821624e-10       1.848666907342e-15       3.592859450660e-13       1.502599102682e-18       1.230449916723e-08      -1.310837491451e-09      -9.005307349016e-13 
    4       2.215166124857e-10       2.636933054210e-15       3.479692230854e-13       2.505067783718e-18       8.750095335329e-09      -9.535073145674e-10      -7.622906965053e-13 
    5       1.938510506305e-10       3.084609837098e-15       3.256204680543e-13       3.758952242410e-18       6.610374102825e-09      -7.358804996078e-10      -6.342960431479e-13 
    6       1.752762712953e-10       3.106142487634e-15       2.961900084292e-13       5.264743277930e-18       5.213824198564e-09      -5.907485222314e-10      -5.121402064571e-13 
    7       1.621198344680e-10       2.770862750903e-15       2.642342366199e-13       7.022990628379e-18       4.245532793197e-09      -4.878502472683e-10      -3.988981844272e-13 
    8       1.524204128373e-10       2.228312743225e-15       2.329132176582e-13       9.034284486558e-18       3.540015970735e-09      -4.114655519594e-10      -2.972456402911e-13 
    9       1.450920610270e-10       1.639838455289e-15       2.042785551330e-13       1.129923617609e-17       3.004579262060e-09      -3.527696217555e-10      -2.088826315855e-13 
   10       1.395390706702e-10       1.130054049439e-15       1.794897259811e-13       1.381845883528e-17       2.585181263095e-09      -3.064687833709e-10      -1.346736668664e-13 
   11       1.352414792849e-10       7.649952244115e-16       1.591338039403e-13       1.659254895636e-17       1.927653344496e-09      -2.546803477017e-10      -7.497873569495e-14 
   12       1.319236271097e-10       5.540417173316e-16       1.434010558321e-13       1.962206959077e-17       1.677935526497e-09      -2.248849465337e-10      -2.942368989059e-14 
   13       1.293667541045e-10       4.669201768591e-16       1.321813553251e-13       2.290753595843e-17       1.474084825295e-09      -2.000152525597e-10       3.554586113039e-15 
   14       1.274003999808e-10       4.559963914121e-16       1.252302746592e-13       2.644940409331e-17       1.305348631224e-09      -1.791304154044e-10       2.497891267509e-14 
   15       1.259666618754e-10       4.758735021880e-16       1.221640881209e-13       3.024806302382e-17       1.164003317769e-09      -1.613321210532e-10       3.654787537313e-14 
   16       1.249277319520e-10       4.955919179389e-16       1.224472381191e-13       3.430383083019e-17       1.044349396386e-09      -1.461258076985e-10       3.982618612108e-14 
   17       1.241759993571e-10       5.023416532484e-16       1.255134565156e-13       3.861695474822e-17       9.421174597445e-10      -1.328648218180e-10       3.702390530038e-14 
   18       1.237008125232e-10       4.985942950108e-16       1.307528767179e-13       4.318761326235e-17       8.536268724625e-10      -1.212375054954e-10       3.006845192701e-14 
   19       1.234972286974e-10       4.945402535651e-16       1.377181811371e-13       4.801593431293e-17       7.776290519123e-10      -1.111363164691e-10       2.045049258467e-14 
   20       1.234679923422e-10       5.032154742839e-16       1.458102593705e-13       5.310198451635e-17       7.108555053050e-10      -1.021812535462e-10       9.919896615772e-15 
   21       1.235979415500e-10       5.315489198037e-16       1.546362234748e-13       5.844581290644e-17       6.521962729139e-10      -9.423237225882e-11      -3.374610691252e-16 
   22       1.238562920177e-10       5.832797814966e-16       1.638000266788e-13       6.404743748094e-17       6.002658584069e-10      -8.710551623261e-11      -9.287768233232e-15 
   23       1.242514325993e-10       6.559607681989e-16       1.730711626880e-13       6.990689380857e-17       5.543108927974e-10      -8.074279108968e-11      -1.637842226585e-14 
   24       1.247702962228e-10       7.440606994330e-16       1.822496031121e-13       7.602422155951e-17       5.132043916051e-10      -7.504262046208e-11      -2.129204560111e-14 
   25       1.253877334684e-10       8.434480478928e-16       1.912125205482e-13       8.239951698300e-17       4.764384513432e-10      -6.991280643668e-11      -2.398180614634e-14 
   26       1.260584524381e-10       9.505070981819e-16       1.998677262487e-13       8.903291713167e-17       4.433309525979e-10      -6.522152396108e-11      -2.460584847951e-14 
   27       1.267916666146e-10       1.065747956504e-15       2.082077513858e-13       9.592464300086e-17       4.134684785954e-10      -6.094398109215e-11      -2.349254696352e-14 
   28       1.275986980643e-10       1.191235466117e-15       2.162589492994e-13       1.030749885436e-16       3.863174597923e-10      -5.705686533633e-11      -2.110726500451e-14 
   29       1.284815091236e-10       1.329455517663e-15       2.240469906180e-13       1.104843585479e-16       3.617300750344e-10      -5.353895876815e-11      -1.783763105063e-14 
   30       1.294207407703e-10       1.483404283902e-15       2.316068522138e-13       1.181532518515e-16       3.394328517018e-10      -5.033171062061e-11      -1.414687874380e-14 
   31       1.303840886272e-10       1.655961252956e-15       2.389779357828e-13       1.260822568997e-16       3.189586787268e-10      -4.735061299258e-11      -1.055518099119e-14 
   32       1.313767646484e-10       1.847509523098e-15       2.461714073591e-13       1.342720514509e-16       3.001968648735e-10      -4.458931859335e-11      -7.337172664162e-15 
   33       1.324068848836e-10       2.057385260507e-15       2.531905271265e-13       1.427234165147e-16       2.830104596247e-10      -4.204937910756e-11      -4.716941022654e-15 
   34       1.334743037561e-10       2.284729795298e-15       2.600315239931e-13       1.514372237297e-16       2.671532722362e-10      -3.971576097701e-11      -2.901279333651e-15 
   35       1.345821594392e-10       2.529450930196e-15       2.666583391470e-13       1.604143630141e-16       2.525412233235e-10      -3.757327555842e-11      -1.919277720030e-15 
   36       1.357273598461e-10       2.791566772141e-15       2.730176608219e-13       1.696558005477e-16       2.390539814203e-10      -3.559262510181e-11      -1.723049377478e-15 
   37       1.369007809197e-10       3.071121197279e-15       2.790455310287e-13       1.791625505373e-16       2.265122236688e-10      -3.373642522969e-11      -2.225057997328e-15 
   38       1.381021302181e-10       3.368801658226e-15       2.846705926037e-13       1.889354927142e-16       2.148822612039e-10      -3.200089267445e-11      -3.292325766835e-15 
   39       1.393285546858e-10       3.685523115830e-15       2.898103301291e-13       1.989754995058e-16       2.041261860234e-10      -3.038603233110e-11      -4.744700416479e-15 
   40       1.405697411571e-10       4.022267635329e-15       2.943690433814e-13       2.092834866291e-16       1.941396759319e-10      -2.888350552903e-11      -6.352118516051e-15 
   41       1.418130989066e-10       4.379934329799e-15       2.982488203871e-13       2.198603402114e-16       1.847881771330e-10      -2.748007378736e-11      -7.873010750609e-15 
   42       1.430630641125e-10       4.758821185974e-15       3.013889205375e-13       2.307066664518e-16       1.760435392837e-10      -2.617110307278e-11      -9.192588912421e-15 
   43       1.443268699225e-10       5.158981035266e-15       3.037376941678e-13       2.418229626840e-16       1.678821125589e-10      -2.495017803048e-11      -1.022395021750e-14 
   44       1.456088802458e-10       5.580354293114e-15       3.052417303937e-13       2.532096808253e-16       1.602437604949e-10      -2.380481704459e-11      -1.086975129246e-14 
   45       1.469111726918e-10       6.022933434088e-15       3.058540379640e-13       2.648671753630e-16       1.530532959057e-10      -2.272061820515e-11      -1.105078048476e-14 
   46       1.482362340144e-10       6.487330868988e-15       3.055616956208e-13       2.767955377918e-16       1.462992762552e-10      -2.169628296720e-11      -1.080294087548e-14 
   47       1.495845371929e-10       6.974369424255e-15       3.043663300332e-13       2.889947061662e-16       1.399738235164e-10      -2.073228438439e-11      -1.020848184825e-14 
   48       1.509534598415e-10       7.484928960139e-15       3.022769558299e-13       3.014645025559e-16       1.340488642263e-10      -1.982644209706e-11      -9.370667806521e-15 
   49       1.523370223187e-10       8.019949518103e-15       2.993103702470e-13       3.142046264412e-16       1.284746263267e-10      -1.897371811466e-11      -8.414991814797e-15 
   50       1.537283428368e-10       8.580303063659e-15       2.954840682834e-13       3.272146753242e-16       1.231946500051e-10      -1.816788395992e-11      -7.468572235532e-15 
   51       1.551283960087e-10       9.166360370612e-15       2.907918054335e-13       3.404942284777e-16       1.181991110178e-10      -1.740752937195e-11      -6.588933916117e-15 
   52       1.565391790167e-10       9.778312012925e-15       2.852220839074e-13       3.540427745133e-16       1.134833730767e-10      -1.669133159513e-11      -5.817993313429e-15 
   53       1.579610715488e-10       1.041628652976e-14       2.787650940353e-13       3.678596809564e-16       1.090320300827e-10      -1.601621316977e-11      -5.202368430569e-15 
   54       1.593927017672e-10       1.108034738915e-14       2.714127569394e-13       3.819441889227e-16       1.048181800960e-10      -1.537722577863e-11      -4.793565775534e-15 
   55       1.608321014595e-10       1.177054848417e-14       2.631548963309e-13       3.962955378486e-16       1.008116692435e-10      -1.476896872331e-11      -4.632293074809e-15 
   56       1.622808145887e-10       1.248712372187e-14       2.539665424867e-13       4.109133881626e-16       9.700788493937e-11      -1.419052309807e-11      -4.696405534624e-15 
   57       1.637405746289e-10       1.323033921393e-14       2.438175490513e-13       4.257974942903e-16       9.340484382036e-11      -1.364153991882e-11      -4.940355786289e-15 
   58       1.652120228268e-10       1.400043813114e-14       2.326760817919e-13       4.409475835494e-16       8.999448014124e-11      -1.312075775051e-11      -5.309513046155e-15 
   59       1.666946243982e-10       1.479763994758e-14       2.205085104578e-13       4.563633558930e-16       8.676226922306e-11      -1.262594634447e-11      -5.739731597205e-15 
   60       1.681865847249e-10       1.562213968472e-14       2.072793006384e-13       4.720444836539e-16       8.368685090131e-11      -1.215385027570e-11      -6.156919270632e-15 
   61       1.696859355217e-10       1.647410110933e-14       1.929559074863e-13       4.879907472810e-16       8.074599769767e-11      -1.170112514666e-11      -6.492224341849e-15 
   62       1.711942678247e-10       1.735363625267e-14       1.775249851349e-13       5.042024787334e-16       7.793693662879e-11      -1.126751926922e-11      -6.732555888615e-15 
   63       1.727136920149e-10       1.826081993198e-14       1.609796403178e-13       5.206802176090e-16       7.525994140677e-11      -1.085330937891e-11      -6.880689139838e-15 
   64       1.742456960295e-10       1.919569446217e-14       1.433148011244e-13       5.374245879118e-16       7.271221845881e-11      -1.045834671087e-11      -6.940710483529e-15 
   65       1.757910986810e-10       2.015826870809e-14       1.245272675633e-13       5.544363021101e-16       7.028773168867e-11      -1.008203213056e-11      -6.918081508860e-15 
   66       1.773500029756e-10       2.114851713693e-14       1.046157621270e-13       5.717161651956e-16       6.797702723811e-11      -9.723291264402e-12      -6.819703048232e-15 
   67       1.789217494323e-10       2.216637887042e-14       8.358098035530e-14       5.892650787418e-16       6.576705824835e-11      -9.380549630569e-12      -6.653979219342e-15 
   68       1.805055273184e-10       2.321176124572e-14       6.142482984863e-14       6.070839614580e-16       6.364469991388e-11      -9.052176639517e-12      -6.431201786754e-15 
   69       1.821024565210e-10       2.428455345409e-14       3.814785522655e-14       6.251734830872e-16       6.160851342506e-11      -8.737977656715e-12      -6.164650531791e-15 
   70       1.837138455956e-10       2.538461397597e-14       1.375137983594e-14       6.435342836323e-16       5.965906185602e-11      -8.437960983945e-12      -5.869831918882e-15 
   71       1.853405418546e-10       2.651176549952e-14      -1.176169959042e-14       6.621670539782e-16       5.779535137169e-11      -8.151883092676e-12      -5.564249443137e-15 
   72       1.869829015128e-10       2.766579408823e-14      -3.838688312571e-14       6.810725378148e-16       5.601475037003e-11      -7.879235746325e-12      -5.267475864734e-15 
   73       1.886407598326e-10       2.884644834851e-14      -6.611803784084e-14       7.002515335599e-16       5.431290862446e-11      -7.619233122519e-12      -5.001225443288e-15 
   74       1.903134012695e-10       3.005343859733e-14      -9.494736799627e-14       7.197048962820e-16       5.268367642613e-11      -7.370798935352e-12      -4.789426172243e-15 
   75       1.919995296173e-10       3.128643602981e-14      -1.248653852338e-13       7.394335396235e-16       5.111902372626e-11      -7.132553557655e-12      -4.658292013241e-15 
   76       1.936978886494e-10       3.254509149108e-14      -1.558635272157e-13       7.594382283198e-16       4.961105562696e-11      -6.903154391800e-12      -4.629001827433e-15 
   77       1.954093206972e-10       3.382909758386e-14      -1.879426307258e-13       7.797189078246e-16       4.815866190536e-11      -6.682417105749e-12      -4.694035215770e-15 
   78       1.971350309677e-10       3.513813642683e-14      -2.211059567024e-13       8.002752553645e-16       4.676193879385e-11      -6.470376413493e-12      -4.836632591557e-15 
   79       1.988759541017e-10       3.647186063169e-14      -2.553567029677e-13       8.211068761648e-16       4.542016294599e-11      -6.266945422256e-12      -5.037727571313e-15 
   80       2.006327376579e-10       3.782989287279e-14      -2.906980287286e-13       8.422133010785e-16       4.413175356625e-11      -6.071909998406e-12      -5.275867603480e-15 
   81       2.024057255974e-10       3.921182545675e-14      -3.271330790767e-13       8.635939842155e-16       4.289423453956e-11      -5.884923133359e-12      -5.527134597138e-15 
   82       2.041949417682e-10       4.061721989203e-14      -3.646650094887e-13       8.852483005711e-16       4.170419656108e-11      -5.705499309491e-12      -5.765065550711e-15 
   83       2.060000733890e-10       4.204560645859e-14      -4.032970103268e-13       9.071755436555e-16       4.055725926574e-11      -5.533008866046e-12      -5.960573180684e-15 
   84       2.078207874332e-10       4.349648694204e-14      -4.430296518095e-13       9.293750318659e-16       3.944915213876e-11      -5.366826691496e-12      -6.088796543609e-15 
   85       2.096577762200e-10       4.496934429981e-14      -4.838523595351e-13       9.518464530595e-16       3.837924608866e-11      -5.206818964306e-12      -6.151131643427e-15 
   86       2.115118556848e-10       4.646363381581e-14      -5.257505641303e-13       9.745895730221e-16       3.734754062289e-11      -5.052927148823e-12      -6.156724489772e-15 
   87       2.133836371328e-10       4.797877970667e-14      -5.687082349010e-13       9.976041312677e-16       3.635357833492e-11      -4.905017847650e-12      -6.115902380018e-15 
   88       2.152735163173e-10       4.951417474451e-14      -6.127078592987e-13       1.020889840495e-15       3.539642583691e-11      -4.762879761278e-12      -6.040210998469e-15 
   89       2.171816625196e-10       5.106917987979e-14      -6.577304223867e-13       1.044446386045e-15       3.447465469236e-11      -4.626220647717e-12      -5.942451515543e-15 
   90       2.191080076279e-10       5.264312386407e-14      -7.037553863063e-13       1.068273425355e-15       3.358632234891e-11      -4.494664282124e-12      -5.836717686964e-15 
   91       2.210522352167e-10       5.423530287283e-14      -7.507606697431e-13       1.092370587418e-15       3.272895307090e-11      -4.367747416436e-12      -5.738432952942e-15 
   92       2.230137696260e-10       5.584498012824e-14      -7.987226273933e-13       1.116737472238e-15       3.189951887217e-11      -4.244916739001e-12      -5.664387537370e-15 
   93       2.249920890762e-10       5.747138366485e-14      -8.476173173511e-13       1.141373912406e-15       3.109516955712e-11      -4.125659665592e-12      -5.628966481168e-15 
   94       2.269877426014e-10       5.911370006134e-14      -8.974245659161e-13       1.166280804015e-15       3.031558985748e-11      -4.009925817955e-12      -5.632104220825e-15 
   95       2.290014665831e-10       6.077107906426e-14      -9.481244790130e-13       1.191459400287e-15       2.956096320509e-11      -3.897763609287e-12      -5.669578540668e-15 
   96       2.310338679568e-10       6.244263496381e-14      -9.996962059263e-13       1.216911063611e-15       2.883124554468e-11      -3.789190873895e-12      -5.736643235002e-15 
   97       2.330854177389e-10       6.412744619118e-14      -1.052117936446e-12       1.242637268591e-15       2.812615654943e-11      -3.684193663910e-12      -5.828012920870e-15 
   98       2.351564445543e-10       6.582455491585e-14      -1.105366898011e-12       1.268639605102e-15       2.744517083657e-11      -3.582725045996e-12      -5.937847850819e-15 
   99       2.372471281630e-10       6.753296664288e-14      -1.159419352858e-12       1.294919781347e-15       2.678750918291e-11      -3.484703898069e-12      -6.059738725669e-15 
  100       2.393574929883e-10       6.925164981024e-14      -1.214250595164e-12       1.321479626909e-15       2.615212974049e-11      -3.390013706000e-12      -6.186691507272e-15 
  101       2.414874016430e-10       7.097953538612e-14      -1.269834948191e-12       1.348321095806e-15       2.553771925212e-11      -3.298501360336e-12      -6.311112231285e-15 
  102       2.436365484575e-10       7.271551646619e-14      -1.326145761436e-12       1.375446269547e-15       2.494268426696e-11      -3.209975953005e-12      -6.424791819930e-15 
  103       2.458044530064e-10       7.445844787094e-14      -1.383155407769e-12       1.402857360186e-15       2.436514235612e-11      -3.124207574032e-12      -6.518890894762e-15 
  104       2.479906859550e-10       7.620719630192e-14      -1.440836182110e-12       1.430556386462e-15       2.380335631369e-11      -3.040981790565e-12      -6.585864078716e-15 
  105       2.501955952845e-10       7.796079939402e-14      -1.499163141834e-12       1.458544145809e-15       2.325712248025e-11      -2.960274057024e-12      -6.625561659692e-15 
  106       2.524196665587e-10       7.971832749814e-14      -1.558111646529e-12       1.486821108528e-15       2.272655445807e-11      -2.882096731630e-12      -6.639927696541e-15 
  107       2.546632954931e-10       8.147883519190e-14      -1.617656497694e-12       1.515387731772e-15       2.221165300363e-11      -2.806444913727e-12      -6.631140185705e-15 
