# Matter power spectrum P(k) at redshift z=0
# for k=7.72358e-06 to 1.0269 h/Mpc,
# number of wavenumbers equal to 627
#    1:k (h/Mpc)              2:P (Mpc/h)^3        
       7.723583291663e-06       9.372257935140e+01 
       1.813975775424e-05       2.201128893216e+02 
       2.857863402723e-05       3.467646518800e+02 
       3.905856109258e-05       4.738922488212e+02 
       4.959807965370e-05       6.017120794545e+02 
       6.021603037977e-05       7.304437082775e+02 
       7.093166438286e-05       8.603110998685e+02 
       8.176475691624e-05       9.915438327885e+02 
       9.273572529002e-05       1.124378278236e+03 
       1.038657520107e-04       1.259058981639e+03 
       1.151769141624e-04       1.395839987830e+03 
       1.266923200573e-04       1.534986212892e+03 
       1.384362541828e-04       1.676774995130e+03 
       1.504343314683e-04       1.821497552585e+03 
       1.627136618597e-04       1.969460631651e+03 
       1.753030261406e-04       2.120988393841e+03 
       1.882330638393e-04       2.276423739207e+03 
       2.015364739140e-04       2.436130637521e+03 
       2.152482286870e-04       2.600495815697e+03 
       2.294058011821e-04       2.769930770053e+03 
       2.440494055787e-04       2.944873787773e+03 
       2.592222499029e-04       3.125791962754e+03 
       2.749707992742e-04       3.313183170869e+03 
       2.913450469978e-04       3.507577973837e+03 
       3.083987894522e-04       3.709541316185e+03 
       3.261898990475e-04       3.919673991105e+03 
       3.447805874476e-04       4.138613717333e+03 
       3.642376487321e-04       4.367035670876e+03 
       3.846326691904e-04       4.605652328324e+03 
       4.060421870161e-04       4.855212333296e+03 
       4.285477813782e-04       5.116498196256e+03 
       4.522360663512e-04       5.390322478873e+03 
       4.771985612828e-04       5.677522222989e+03 
       5.035314058067e-04       5.978951212952e+03 
       5.313348854961e-04       6.295469384096e+03 
       5.607127339245e-04       6.627930495803e+03 
       5.917711796392e-04       6.977164985133e+03 
       6.246177133124e-04       7.343961528489e+03 
       6.593595621047e-04       7.729044183257e+03 
       6.961018756840e-04       8.133047453258e+03 
       7.349456513756e-04       8.556488552072e+03 
       7.759854535570e-04       8.999740992763e+03 
       8.193070123610e-04       9.463004355231e+03 
       8.649848153978e-04       9.946281247453e+03 
       9.130798289065e-04       1.044935519150e+04 
       9.636374965296e-04       1.097177698383e+04 
       1.016686160562e-03       1.151285791474e+04 
       1.072236029832e-03       1.207167060399e+04 
       1.130278781063e-03       1.264706436885e+04 
       1.190787830633e-03       1.323768117058e+04 
       1.253719257949e-03       1.384198746343e+04 
       1.319013308231e-03       1.445830325024e+04 
       1.386596359204e-03       1.508484253304e+04 
       1.456383208443e-03       1.571975471030e+04 
       1.528279528307e-03       1.636115747236e+04 
       1.602184342568e-03       1.700717900598e+04 
       1.677992399242e-03       1.765598991473e+04 
       1.755596342831e-03       1.830582888377e+04 
       1.834888620917e-03       1.895502634149e+04 
       1.915763090415e-03       1.960201795433e+04 
       1.998116314860e-03       2.024535399653e+04 
       2.081848564202e-03       2.088371944162e+04 
       2.166864542485e-03       2.151592034866e+04 
       2.253073876931e-03       2.214088678040e+04 
       2.340391405480e-03       2.275767190826e+04 
       2.428737299822e-03       2.336544262496e+04 
       2.518037058613e-03       2.396347607940e+04 
       2.608221401868e-03       2.455114864834e+04 
       2.699226093153e-03       2.512793258973e+04 
       2.790991711726e-03       2.569338289891e+04 
       2.883463392560e-03       2.624713767383e+04 
       2.976590548390e-03       2.678889992291e+04 
       3.070326584607e-03       2.731844015523e+04 
       3.164628615112e-03       2.783558740300e+04 
       3.259457184961e-03       2.834021946316e+04 
       3.354776003865e-03       2.883226505258e+04 
       3.450551693183e-03       2.931168950844e+04 
       3.546753547989e-03       2.977797059839e+04 
       3.643353314979e-03       3.023200366821e+04 
       3.740324986373e-03       3.067367581116e+04 
       3.837644609593e-03       3.110274617160e+04 
       3.935290112140e-03       3.151961001463e+04 
       4.033241140961e-03       3.192429333524e+04 
       4.131478915445e-03       3.231711933586e+04 
       4.229986093145e-03       3.269789247056e+04 
       4.328746647286e-03       3.306686038744e+04 
       4.427745755161e-03       3.342405315897e+04 
       4.526969696502e-03       3.376993422751e+04 
       4.626405760996e-03       3.410415228525e+04 
       4.726042164133e-03       3.442722972794e+04 
       4.825867970652e-03       3.473887526474e+04 
       4.925873024898e-03       3.504159475230e+04 
       5.026047887432e-03       3.533284735435e+04 
       5.126383777347e-03       3.561357388820e+04 
       5.226872519731e-03       3.588399197604e+04 
       5.327506497805e-03       3.614469076693e+04 
       5.428278609292e-03       3.639607968983e+04 
       5.529182226633e-03       3.663742838745e+04 
       5.630211160662e-03       3.686945711785e+04 
       5.731359627445e-03       3.709363346612e+04 
       5.832622217966e-03       3.730739034057e+04 
       5.933993870406e-03       3.751234926323e+04 
       6.035469844763e-03       3.770858402963e+04 
       6.137045699620e-03       3.789646428066e+04 
       6.238717270830e-03       3.807591770193e+04 
       6.340480651973e-03       3.824737153861e+04 
       6.442332176414e-03       3.841073673483e+04 
       6.544268400809e-03       3.856618720238e+04 
       6.646286089945e-03       3.871412061859e+04 
       6.748382202783e-03       3.885457301586e+04 
       6.850553879608e-03       3.898778532957e+04 
       6.952798430183e-03       3.911205045444e+04 
       7.055113322823e-03       3.923280223553e+04 
       7.157496174305e-03       3.934479911062e+04 
       7.259944740553e-03       3.945026159212e+04 
       7.362456908026e-03       3.954753825447e+04 
       7.465030685744e-03       3.964147729800e+04 
       7.567664197912e-03       3.972760118998e+04 
       7.670355677090e-03       3.980728234496e+04 
       7.773103457851e-03       3.988108925205e+04 
       7.875905970909e-03       3.994907224173e+04 
       7.978761737661e-03       4.001128394237e+04 
       8.081669365122e-03       4.006764864904e+04 
       8.184627541217e-03       4.011868510439e+04 
       8.287635030402e-03       4.016414843237e+04 
       8.390690669591e-03       4.020445860203e+04 
       8.493793364366e-03       4.023965940057e+04 
       8.596942085445e-03       4.026942645499e+04 
       8.700135865394e-03       4.029436332687e+04 
       8.803373795557e-03       4.031448392955e+04 
       8.906655023202e-03       4.033010066238e+04 
       9.009978748846e-03       4.034056518185e+04 
       9.113344223773e-03       4.034669945604e+04 
       9.216750747706e-03       4.034860195420e+04 
       9.320197666635e-03       4.034569531074e+04 
       9.423684370796e-03       4.033872618346e+04 
       9.527210292770e-03       4.032642335519e+04 
       9.630774905723e-03       4.031237550520e+04 
       9.734377721743e-03       4.029334939421e+04 
       9.838018290302e-03       4.027006732903e+04 
       9.941696196808e-03       4.024336401800e+04 
       1.004541106126e-02       4.021268273004e+04 
       1.014916253698e-02       4.017615462073e+04 
       1.025295030945e-02       4.014021418580e+04 
       1.035677409520e-02       4.009908254100e+04 
       1.046063364076e-02       4.005408078139e+04 
       1.056452872176e-02       4.000614664299e+04 
       1.066845914197e-02       3.995474209063e+04 
       1.077242473251e-02       3.989997352031e+04 
       1.087642535107e-02       3.984205514235e+04 
       1.098046088116e-02       3.977962947703e+04 
       1.108453123146e-02       3.971579662614e+04 
       1.118863633519e-02       3.964905746093e+04 
       1.129277614953e-02       3.957925522277e+04 
       1.139695065511e-02       3.950883240777e+04 
       1.150115985545e-02       3.943373387183e+04 
       1.160540377657e-02       3.935422177755e+04 
       1.170968246655e-02       3.927565501506e+04 
       1.181399599513e-02       3.919281890365e+04 
       1.191834445336e-02       3.910572525567e+04 
       1.202272795330e-02       3.901976519076e+04 
       1.212714662772e-02       3.892960243334e+04 
       1.223160062981e-02       3.883723891905e+04 
       1.233609013301e-02       3.874089819846e+04 
       1.244061533072e-02       3.864564324627e+04 
       1.254517643620e-02       3.854503224776e+04 
       1.264977368235e-02       3.844358809663e+04 
       1.275440732162e-02       3.834269561468e+04 
       1.285907762585e-02       3.823567383738e+04 
       1.296378488623e-02       3.813070022876e+04 
       1.306852941320e-02       3.801985416651e+04 
       1.317331153642e-02       3.790917722522e+04 
       1.327813160472e-02       3.779861910947e+04 
       1.338298998611e-02       3.768437995340e+04 
       1.348788706778e-02       3.756674909189e+04 
       1.359282325613e-02       3.745098928986e+04 
       1.369779897680e-02       3.733170649900e+04 
       1.380281467479e-02       3.720927038542e+04 
       1.390787081444e-02       3.708714198542e+04 
       1.401296787963e-02       3.696542233457e+04 
       1.411810637384e-02       3.684025283938e+04 
       1.422328682027e-02       3.671381176634e+04 
       1.432850976203e-02       3.658614061897e+04 
       1.443377576224e-02       3.645544325384e+04 
       1.453908540428e-02       3.632664732682e+04 
       1.464443929193e-02       3.619334602687e+04 
       1.474983804959e-02       3.606241746323e+04 
       1.485528232253e-02       3.592690836271e+04 
       1.496077277708e-02       3.579339148422e+04 
       1.506631010093e-02       3.565747328405e+04 
       1.517189500339e-02       3.552058573924e+04 
       1.527752821567e-02       3.538075598118e+04 
       1.538321049116e-02       3.524354951652e+04 
       1.548894260579e-02       3.510295004869e+04 
       1.559472535835e-02       3.496276536664e+04 
       1.570055957081e-02       3.482101229472e+04 
       1.580644608872e-02       3.467865632278e+04 
       1.591238578157e-02       3.453530847753e+04 
       1.601837954320e-02       3.439118183698e+04 
       1.612442829219e-02       3.424653809811e+04 
       1.623053297235e-02       3.409951339447e+04 
       1.633669455308e-02       3.395343958395e+04 
       1.644291402990e-02       3.380662558022e+04 
       1.654919242493e-02       3.365990509069e+04 
       1.665553078735e-02       3.351172969687e+04 
       1.676193019396e-02       3.336438072298e+04 
       1.686839174969e-02       3.321415964101e+04 
       1.697491658819e-02       3.306514006124e+04 
       1.708150587236e-02       3.291454426201e+04 
       1.718816079500e-02       3.276423853230e+04 
       1.729488257936e-02       3.261328662571e+04 
       1.740167247985e-02       3.246324592879e+04 
       1.750853178266e-02       3.231077952784e+04 
       1.761546180643e-02       3.215873063104e+04 
       1.772246390300e-02       3.200779628141e+04 
       1.782953945808e-02       3.185544368456e+04 
       1.793668989205e-02       3.170287531195e+04 
       1.804391666070e-02       3.154871642817e+04 
       1.815122125607e-02       3.139538377878e+04 
       1.825860520722e-02       3.124352086400e+04 
       1.836607008114e-02       3.108860899352e+04 
       1.847361748361e-02       3.093616437865e+04 
       1.858124906010e-02       3.078259008748e+04 
       1.868896649672e-02       3.062717676822e+04 
       1.879677152119e-02       3.047454119412e+04 
       1.890466590383e-02       3.032048787268e+04 
       1.901265145862e-02       3.016647751110e+04 
       1.912073004423e-02       3.001122074283e+04 
       1.922890356514e-02       2.985709526060e+04 
       1.933717397279e-02       2.970422773423e+04 
       1.944554326673e-02       2.954905766239e+04 
       1.955401349585e-02       2.939520688462e+04 
       1.966258675960e-02       2.924138555664e+04 
       1.977126520934e-02       2.908849476923e+04 
       1.988005104962e-02       2.893387466703e+04 
       1.998894653957e-02       2.878026639435e+04 
       2.009795399437e-02       2.862794628046e+04 
       2.020707578665e-02       2.847477556168e+04 
       2.031631434806e-02       2.832156364039e+04 
       2.042567217083e-02       2.816882917598e+04 
       2.053515180940e-02       2.801506807632e+04 
       2.064475588207e-02       2.786324354266e+04 
       2.075448707279e-02       2.771104523333e+04 
       2.086434813290e-02       2.755913977744e+04 
       2.097434188303e-02       2.740690324903e+04 
       2.108447121498e-02       2.725623532889e+04 
       2.119473909376e-02       2.710497034645e+04 
       2.130514855960e-02       2.695444221533e+04 
       2.141570273011e-02       2.680402683988e+04 
       2.152640480245e-02       2.665286379944e+04 
       2.163725805568e-02       2.650415830634e+04 
       2.174826585303e-02       2.635475738077e+04 
       2.185943164442e-02       2.620564107763e+04 
       2.197075896900e-02       2.605669357987e+04 
       2.208225145771e-02       2.590864740046e+04 
       2.219391283610e-02       2.575964879731e+04 
       2.230574692708e-02       2.561294546237e+04 
       2.241775765389e-02       2.546551864946e+04 
       2.252994904313e-02       2.531888077862e+04 
       2.264232522795e-02       2.517281342261e+04 
       2.275489045124e-02       2.502676912185e+04 
       2.286764906915e-02       2.488177955744e+04 
       2.298060555451e-02       2.473640546676e+04 
       2.309376450057e-02       2.459220618217e+04 
       2.320713062479e-02       2.444817342952e+04 
       2.332070877280e-02       2.430602872779e+04 
       2.343450392252e-02       2.416205601676e+04 
       2.354852118844e-02       2.401997264789e+04 
       2.366276582610e-02       2.387785831038e+04 
       2.377724323669e-02       2.373729783852e+04 
       2.389195897190e-02       2.359649106801e+04 
       2.400691873894e-02       2.345638712988e+04 
       2.412212840580e-02       2.331668648859e+04 
       2.423759400665e-02       2.317764749577e+04 
       2.435332174758e-02       2.303820778332e+04 
       2.446931801250e-02       2.290030028514e+04 
       2.458558936932e-02       2.276285804351e+04 
       2.470214257642e-02       2.262596740018e+04 
       2.481898458938e-02       2.248963071066e+04 
       2.493612256799e-02       2.235451500050e+04 
       2.505356388361e-02       2.221934004236e+04 
       2.517131612685e-02       2.208417282111e+04 
       2.528938711557e-02       2.195021960956e+04 
       2.540778490330e-02       2.181692559300e+04 
       2.552651778797e-02       2.168437486564e+04 
       2.564559432114e-02       2.155191962488e+04 
       2.576502331759e-02       2.142032076003e+04 
       2.588481386541e-02       2.128945379655e+04 
       2.600497533654e-02       2.115910070945e+04 
       2.612551739783e-02       2.102939128338e+04 
       2.624645002268e-02       2.090090400475e+04 
       2.636778350318e-02       2.077197594898e+04 
       2.648952846292e-02       2.064459366368e+04 
       2.661169587042e-02       2.051697543713e+04 
       2.673429705322e-02       2.039068306894e+04 
       2.685734371276e-02       2.026464808767e+04 
       2.698084793992e-02       2.013978715646e+04 
       2.710482223151e-02       2.001427668343e+04 
       2.722927950752e-02       1.989025505281e+04 
       2.735423312936e-02       1.976673072629e+04 
       2.747969691905e-02       1.964395339715e+04 
       2.760568517948e-02       1.952213299995e+04 
       2.773221271579e-02       1.940060415281e+04 
       2.785929485791e-02       1.927998100868e+04 
       2.798694748442e-02       1.915900334608e+04 
       2.811518704778e-02       1.903934091655e+04 
       2.824403060090e-02       1.892023273293e+04 
       2.837349582547e-02       1.880172060612e+04 
       2.850360106173e-02       1.868405973832e+04 
       2.863436534024e-02       1.856697679500e+04 
       2.876580841538e-02       1.845117731309e+04 
       2.889795080105e-02       1.833461621628e+04 
       2.903081380846e-02       1.821900033352e+04 
       2.916441958641e-02       1.810435118004e+04 
       2.929879116403e-02       1.799025527563e+04 
       2.943395249631e-02       1.787674318328e+04 
       2.956992851256e-02       1.776451467926e+04 
       2.970674516814e-02       1.765252891178e+04 
       2.984442949956e-02       1.754000809793e+04 
       2.998300968332e-02       1.742893043884e+04 
       3.012251509886e-02       1.731902674965e+04 
       3.026297639577e-02       1.720854462920e+04 
       3.040442556577e-02       1.709926780582e+04 
       3.054689601993e-02       1.699056548437e+04 
       3.069042267128e-02       1.688326828184e+04 
       3.083504202363e-02       1.677583300413e+04 
       3.098079226699e-02       1.666779723866e+04 
       3.112771338008e-02       1.656137578335e+04 
       3.127584724084e-02       1.645553551223e+04 
       3.142523774541e-02       1.635082714115e+04 
       3.157593093657e-02       1.624530792138e+04 
       3.172797514244e-02       1.614105236894e+04 
       3.188142112644e-02       1.603808598487e+04 
       3.203632224968e-02       1.593411702911e+04 
       3.219273464696e-02       1.583143506272e+04 
       3.235071741776e-02       1.572933558149e+04 
       3.251033283385e-02       1.562759757666e+04 
       3.267164656508e-02       1.552633846076e+04 
       3.283472792551e-02       1.542563143572e+04 
       3.299965014194e-02       1.532526864073e+04 
       3.316649064730e-02       1.522562271019e+04 
       3.333533140181e-02       1.512615021642e+04 
       3.350625924488e-02       1.502814075817e+04 
       3.367936628156e-02       1.492915722961e+04 
       3.385475030737e-02       1.483168386772e+04 
       3.403251527638e-02       1.473341778171e+04 
       3.421277181761e-02       1.463610851336e+04 
       3.439563780600e-02       1.453930987564e+04 
       3.458123899473e-02       1.444311057960e+04 
       3.476970971697e-02       1.434755776646e+04 
       3.496119366625e-02       1.425121450272e+04 
       3.515584476606e-02       1.415602321115e+04 
       3.535382814103e-02       1.406113440960e+04 
       3.555532120395e-02       1.396598840548e+04 
       3.576051487545e-02       1.387134166209e+04 
       3.596961495572e-02       1.377714208944e+04 
       3.618284367127e-02       1.368290592442e+04 
       3.640044142364e-02       1.358907593034e+04 
       3.662266877174e-02       1.349531961056e+04 
       3.684980868574e-02       1.340181843386e+04 
       3.708216911696e-02       1.330810082108e+04 
       3.732008593751e-02       1.321472353551e+04 
       3.756392631336e-02       1.312130015466e+04 
       3.781409258802e-02       1.302761347113e+04 
       3.807102676955e-02       1.293433026662e+04 
       3.833521573351e-02       1.284056470390e+04 
       3.860719727882e-02       1.274671822680e+04 
       3.888756720416e-02       1.265277148540e+04 
       3.917698761032e-02       1.255818679600e+04 
       3.947619668235e-02       1.246323235294e+04 
       3.978602026522e-02       1.236810321499e+04 
       4.010738562382e-02       1.227208069705e+04 
       4.044133787495e-02       1.217581192142e+04 
       4.078905970269e-02       1.207829694704e+04 
       4.115189512643e-02       1.197908508818e+04 
       4.153137829156e-02       1.187938269510e+04 
       4.192926850853e-02       1.177810228885e+04 
       4.234759308891e-02       1.167560605560e+04 
       4.278869993143e-02       1.157014096491e+04 
       4.325532230611e-02       1.146261110326e+04 
       4.375065887171e-02       1.135156494568e+04 
