# dimensionless total [l(l+1)/2pi] C_l's
# for l=2 to 3500, i.e. number of multipoles equal to 3499
#
# -> if you prefer output in CAMB/HealPix/LensPix units/order, set 'format' to 'camb' in input file
# -> if you don't want to see such a header, set 'headers' to 'no' in input file
# -> for CMB lensing (phi), these are C_l^phi-phi for the lensing potential.
#    Remember the conversion factors:
#    C_l^dd (deflection) = l(l+1) C_l^phi-phi
#    C_l^gg (shear/convergence) = 1/4 (l(l+1))^2 C_l^phi-phi
#
# 1:l     2:TT                     3:EE                     4:TE                     5:BB                     6:phiphi                 7:TPhi                   8:Ephi               
    2       3.514233762722e-10       9.658914398645e-16       3.536427713731e-13       0.000000000000e+00       1.891111790088e-08      -1.982282391259e-09      -1.065176476939e-12 
    3       2.666603497424e-10       1.847164309579e-15       3.592859793537e-13       0.000000000000e+00       1.230449916723e-08      -1.310837491451e-09      -9.005307349016e-13 
    4       2.215138854865e-10       2.634427993020e-15       3.479693212828e-13       0.000000000000e+00       8.750095335329e-09      -9.535073145674e-10      -7.622906965053e-13 
    5       1.938469488252e-10       3.080850907482e-15       3.256206908465e-13       0.000000000000e+00       6.610374102825e-09      -7.358804996078e-10      -6.342960431479e-13 
    6       1.752705107829e-10       3.100877806215e-15       2.961904443936e-13       0.000000000000e+00       5.213824198564e-09      -5.907485222314e-10      -5.121402064571e-13 
    7       1.621121276085e-10       2.763839904652e-15       2.642350060086e-13       0.000000000000e+00       4.245532793197e-09      -4.878502472683e-10      -3.988981844272e-13 
    8       1.524104684987e-10       2.219278758373e-15       2.329144753521e-13       0.000000000000e+00       3.540015970735e-09      -4.114655519594e-10      -2.972456402911e-13 
    9       1.450795851544e-10       1.628539786773e-15       2.042804927405e-13       0.000000000000e+00       3.004579262060e-09      -3.527696217555e-10      -2.088826315855e-13 
   10       1.395237671730e-10       1.116236590124e-15       1.794925731003e-13       0.000000000000e+00       2.585181263095e-09      -3.064687833709e-10      -1.346736668664e-13 
   11       1.352230512207e-10       7.484043322831e-16       1.591378286416e-13       0.000000000000e+00       1.927653344496e-09      -2.546803477017e-10      -7.497873569495e-14 
   12       1.319017781293e-10       5.344222579332e-16       1.434065644567e-13       0.000000000000e+00       1.677935526497e-09      -2.248849465337e-10      -2.942368989059e-14 
   13       1.293411901105e-10       4.440165774430e-16       1.321886917291e-13       0.000000000000e+00       1.474084825295e-09      -2.000152525597e-10       3.554586113039e-15 
   14       1.273708309377e-10       4.295527026968e-16       1.252398190581e-13       0.000000000000e+00       1.305348631224e-09      -1.791304154044e-10       2.497891267509e-14 
   15       1.259328037024e-10       4.456334632621e-16       1.221762557088e-13       0.000000000000e+00       1.164003317769e-09      -1.613321210532e-10       3.654787537313e-14 
   16       1.248893084228e-10       4.612990197549e-16       1.224624776447e-13       0.000000000000e+00       1.044349396386e-09      -1.461258076985e-10       3.982618612108e-14 
   17       1.241327439287e-10       4.637391963246e-16       1.255322489994e-13       0.000000000000e+00       9.421174597445e-10      -1.328648218180e-10       3.702390530038e-14 
   18       1.236524700550e-10       4.554254397890e-16       1.307757343847e-13       0.000000000000e+00       8.536268724625e-10      -1.212375054954e-10       3.006845192701e-14 
   19       1.234435567453e-10       4.465480458112e-16       1.377456472963e-13       0.000000000000e+00       7.776290519123e-10      -1.111363164691e-10       2.045049258467e-14 
   20       1.234087626011e-10       4.501428806914e-16       1.458429078479e-13       0.000000000000e+00       7.108555053050e-10      -1.021812535462e-10       9.919896615772e-15 
   21       1.235329403721e-10       4.731388147542e-16       1.546746600519e-13       0.000000000000e+00       6.521962729139e-10      -9.423237225882e-11      -3.374610691252e-16 
   22       1.237853211309e-10       5.192749472752e-16       1.638448899521e-13       0.000000000000e+00       6.002658584069e-10      -8.710551623261e-11      -9.287768233232e-15 
   23       1.241743088133e-10       5.861038518041e-16       1.731231268928e-13       0.000000000000e+00       5.543108927974e-10      -8.074279108968e-11      -1.637842226585e-14 
   24       1.246868513328e-10       6.680941825787e-16       1.823093803643e-13       0.000000000000e+00       5.132043916051e-10      -7.504262046208e-11      -2.129204560111e-14 
   25       1.252978130747e-10       7.611141848431e-16       1.912808648132e-13       0.000000000000e+00       4.764384513432e-10      -6.991280643668e-11      -2.398180614634e-14 
   26       1.259619150075e-10       8.615478643922e-16       1.999454367483e-13       0.000000000000e+00       4.433309525979e-10      -6.522152396108e-11      -2.460584847951e-14 
   27       1.266883816406e-10       9.699049831638e-16       2.082956770812e-13       0.000000000000e+00       4.134684785954e-10      -6.094398109215e-11      -2.349254696352e-14 
   28       1.274885443771e-10       1.088249987799e-15       2.163579927948e-13       0.000000000000e+00       3.863174597923e-10      -5.705686533633e-11      -2.110726500451e-14 
   29       1.283643724109e-10       1.219068353827e-15       2.241581116299e-13       0.000000000000e+00       3.617300750344e-10      -5.353895876815e-11      -1.783763105063e-14 
   30       1.292965113502e-10       1.365355793694e-15       2.317310715500e-13       0.000000000000e+00       3.394328517018e-10      -5.033171062061e-11      -1.414687874380e-14 
   31       1.302526592511e-10       1.529991312980e-15       2.391163384649e-13       0.000000000000e+00       3.189586787268e-10      -4.735061299258e-11      -1.055518099119e-14 
   32       1.312380282906e-10       1.713357630658e-15       2.463251417007e-13       0.000000000000e+00       3.001968648735e-10      -4.458931859335e-11      -7.337172664162e-15 
   33       1.322607321669e-10       1.914790555483e-15       2.533608065926e-13       0.000000000000e+00       2.830104596247e-10      -4.204937910756e-11      -4.716941022654e-15 
   34       1.333206205712e-10       2.133431103928e-15       2.602196280206e-13       0.000000000000e+00       2.671532722362e-10      -3.971576097701e-11      -2.901279333651e-15 
   35       1.344208259875e-10       2.369187000316e-15       2.668656063055e-13       0.000000000000e+00       2.525412233235e-10      -3.757327555842e-11      -1.919277720030e-15 
   36       1.355582484417e-10       2.622076389462e-15       2.732454868799e-13       0.000000000000e+00       2.390539814203e-10      -3.559262510181e-11      -1.723049377478e-15 
   37       1.367237543324e-10       2.892143327548e-15       2.792953652064e-13       0.000000000000e+00       2.265122236688e-10      -3.373642522969e-11      -2.225057997328e-15 
   38       1.379170437579e-10       3.180075835552e-15       2.849439210159e-13       0.000000000000e+00       2.148822612039e-10      -3.200089267445e-11      -3.292325766835e-15 
   39       1.391352555897e-10       3.486789680634e-15       2.901086672910e-13       0.000000000000e+00       2.041261860234e-10      -3.038603233110e-11      -4.744700416479e-15 
   40       1.403680668712e-10       3.813267919984e-15       2.946939266152e-13       0.000000000000e+00       1.941396759319e-10      -2.888350552903e-11      -6.352118516051e-15 
   41       1.416028768813e-10       4.160410900371e-15       2.986017998974e-13       0.000000000000e+00       1.847881771330e-10      -2.748007378736e-11      -7.873010750609e-15 
   42       1.428441169282e-10       4.528518248563e-15       3.017715357984e-13       0.000000000000e+00       1.760435392837e-10      -2.617110307278e-11      -9.192588912421e-15 
   43       1.440990166846e-10       4.917644749329e-15       3.041514588407e-13       0.000000000000e+00       1.678821125589e-10      -2.495017803048e-11      -1.022395021750e-14 
   44       1.453719365640e-10       5.327733057552e-15       3.056881201012e-13       0.000000000000e+00       1.602437604949e-10      -2.380481704459e-11      -1.086975129246e-14 
   45       1.466649519369e-10       5.758778119066e-15       3.063344768227e-13       0.000000000000e+00       1.530532959057e-10      -2.272061820515e-11      -1.105078048476e-14 
   46       1.479805527959e-10       6.211394832936e-15       3.060775402305e-13       0.000000000000e+00       1.462992762552e-10      -2.169628296720e-11      -1.080294087548e-14 
   47       1.493192179287e-10       6.686408705040e-15       3.049188540755e-13       0.000000000000e+00       1.399738235164e-10      -2.073228438439e-11      -1.020848184825e-14 
   48       1.506783322879e-10       7.184702538464e-15       3.028673344498e-13       0.000000000000e+00       1.340488642263e-10      -1.982644209706e-11      -9.370667806521e-15 
   49       1.520519252032e-10       7.707219590839e-15       2.999396637125e-13       0.000000000000e+00       1.284746263267e-10      -1.897371811466e-11      -8.414991814797e-15 
   50       1.534331255193e-10       8.254835139569e-15       2.961532101237e-13       0.000000000000e+00       1.231946500051e-10      -1.816788395992e-11      -7.468572235532e-15 
   51       1.548229200030e-10       8.827922753354e-15       2.915016071190e-13       0.000000000000e+00       1.181991110178e-10      -1.740752937195e-11      -6.588933916117e-15 
   52       1.562233197905e-10       9.426675747628e-15       2.859732262305e-13       0.000000000000e+00       1.134833730767e-10      -1.669133159513e-11      -5.817993313429e-15 
   53       1.576347204884e-10       1.005122552370e-14       2.795581132181e-13       0.000000000000e+00       1.090320300827e-10      -1.601621316977e-11      -5.202368430569e-15 
   54       1.590557682415e-10       1.070163853352e-14       2.722480302633e-13       0.000000000000e+00       1.048181800960e-10      -1.537722577863e-11      -4.793565775534e-15 
   55       1.604845129053e-10       1.137797158936e-14       2.640326379020e-13       0.000000000000e+00       1.008116692435e-10      -1.476896872331e-11      -4.632293074809e-15 
   56       1.619225098609e-10       1.208046083641e-14       2.548868334446e-13       0.000000000000e+00       9.700788493937e-11      -1.419052309807e-11      -4.696405534624e-15 
   57       1.633715025849e-10       1.280937440859e-14       2.447803410547e-13       0.000000000000e+00       9.340484382036e-11      -1.364153991882e-11      -4.940355786289e-15 
   58       1.648321428583e-10       1.356495745116e-14       2.336811905811e-13       0.000000000000e+00       8.999448014124e-11      -1.312075775051e-11      -5.309513046155e-15 
   59       1.663039069811e-10       1.434743135873e-14       2.215556093523e-13       0.000000000000e+00       8.676226922306e-11      -1.262594634447e-11      -5.739731597205e-15 
   60       1.677850119860e-10       1.515699301313e-14       2.083679139720e-13       0.000000000000e+00       8.368685090131e-11      -1.215385027570e-11      -6.156919270632e-15 
   61       1.692734993538e-10       1.599380806887e-14       1.940854114095e-13       0.000000000000e+00       8.074599769767e-11      -1.170112514666e-11      -6.492224341849e-15 
   62       1.707709599607e-10       1.685799077198e-14       1.786946325961e-13       0.000000000000e+00       7.793693662879e-11      -1.126751926922e-11      -6.732555888615e-15 
   63       1.722795003609e-10       1.774961823839e-14       1.621885672050e-13       0.000000000000e+00       7.525994140677e-11      -1.085330937891e-11      -6.880689139838e-15 
   64       1.738006032489e-10       1.866873507467e-14       1.445620256228e-13       0.000000000000e+00       7.271221845881e-11      -1.045834671087e-11      -6.940710483529e-15 
   65       1.753350807175e-10       1.961535242711e-14       1.258116896858e-13       0.000000000000e+00       7.028773168867e-11      -1.008203213056e-11      -6.918081508860e-15 
   66       1.768830275158e-10       2.058944703079e-14       1.059361634161e-13       0.000000000000e+00       6.797702723811e-11      -9.723291264402e-12      -6.819703048232e-15 
   67       1.784437743076e-10       2.159096025867e-14       8.493602375770e-14       0.000000000000e+00       6.576705824835e-11      -9.380549630569e-12      -6.653979219342e-15 
   68       1.800165001162e-10       2.261980206131e-14       6.281305091525e-14       0.000000000000e+00       6.364469991388e-11      -9.052176639517e-12      -6.431201786754e-15 
   69       1.816023182484e-10       2.367586583875e-14       3.956762486247e-14       0.000000000000e+00       6.160851342506e-11      -8.737977656715e-12      -6.164650531791e-15 
   70       1.832025310065e-10       2.475901488761e-14       1.520089001849e-14       0.000000000000e+00       5.965906185602e-11      -8.437960983945e-12      -5.869831918882e-15 
   71       1.848179785510e-10       2.586907696607e-14      -1.028444181002e-14       0.000000000000e+00       5.779535137169e-11      -8.151883092676e-12      -5.564249443137e-15 
   72       1.864490090174e-10       2.700584346798e-14      -3.688406167471e-14       0.000000000000e+00       5.601475037003e-11      -7.879235746325e-12      -5.267475864734e-15 
   73       1.880954486333e-10       2.816906859704e-14      -6.459203373152e-14       0.000000000000e+00       5.431290862446e-11      -7.619233122519e-12      -5.001225443288e-15 
   74       1.897565718358e-10       2.935846854095e-14      -9.340076548645e-14       0.000000000000e+00       5.268367642613e-11      -7.370798935352e-12      -4.789426172243e-15 
   75       1.914310713882e-10       3.057372064557e-14      -1.233009780416e-13       0.000000000000e+00       5.111902372626e-11      -7.132553557655e-12      -4.658292013241e-15 
   76       1.931176828611e-10       3.181448203972e-14      -1.542843354143e-13       0.000000000000e+00       4.961105562696e-11      -6.903154391800e-12      -4.629001827433e-15 
   77       1.948172556012e-10       3.308045125620e-14      -1.863519518091e-13       0.000000000000e+00       4.815866190536e-11      -6.682417105749e-12      -4.694035215770e-15 
   78       1.965310068771e-10       3.437131639946e-14      -2.195073888380e-13       0.000000000000e+00       4.676193879385e-11      -6.470376413493e-12      -4.836632591557e-15 
   79       1.982598848199e-10       3.568673627176e-14      -2.537541584447e-13       0.000000000000e+00       4.542016294599e-11      -6.266945422256e-12      -5.037727571313e-15 
   80       2.000045519587e-10       3.702633994617e-14      -2.890957476765e-13       0.000000000000e+00       4.413175356625e-11      -6.071909998406e-12      -5.275867603480e-15 
   81       2.017653687557e-10       3.838972633959e-14      -3.255356434570e-13       0.000000000000e+00       4.289423453956e-11      -5.884923133359e-12      -5.527134597138e-15 
   82       2.035423771416e-10       3.977646378575e-14      -3.630773573581e-13       0.000000000000e+00       4.170419656108e-11      -5.705499309491e-12      -5.765065550711e-15 
   83       2.053352840512e-10       4.118608960822e-14      -4.017244503727e-13       0.000000000000e+00       4.055725926574e-11      -5.533008866046e-12      -5.960573180684e-15 
   84       2.071437764640e-10       4.261811194173e-14      -4.414778606416e-13       0.000000000000e+00       3.944915213876e-11      -5.366826691496e-12      -6.088796543609e-15 
   85       2.089685626002e-10       4.407201647843e-14      -4.823273233681e-13       0.000000000000e+00       3.837924608866e-11      -5.206818964306e-12      -6.151131643427e-15 
   86       2.108104739485e-10       4.554726006234e-14      -5.242585673125e-13       0.000000000000e+00       3.734754062289e-11      -5.052927148823e-12      -6.156724489772e-15 
   87       2.126701383747e-10       4.704326815702e-14      -5.672558651169e-13       0.000000000000e+00       3.635357833492e-11      -4.905017847650e-12      -6.115902380018e-15 
   88       2.145479692284e-10       4.855943445635e-14      -6.113020127488e-13       0.000000000000e+00       3.539642583691e-11      -4.762879761278e-12      -6.040210998469e-15 
   89       2.164441544502e-10       5.009512049536e-14      -6.563783089451e-13       0.000000000000e+00       3.447465469236e-11      -4.626220647717e-12      -5.942451515543e-15 
   90       2.183586456784e-10       5.164965526096e-14      -7.024645346560e-13       0.000000000000e+00       3.358632234891e-11      -4.494664282124e-12      -5.836717686964e-15 
   91       2.202911473555e-10       5.322233480283e-14      -7.495389324889e-13       0.000000000000e+00       3.272895307090e-11      -4.367747416436e-12      -5.738432952942e-15 
   92       2.222411058357e-10       5.481242184411e-14      -7.975781861518e-13       0.000000000000e+00       3.189951887217e-11      -4.244916739001e-12      -5.664387537370e-15 
   93       2.242080178598e-10       5.641914384193e-14      -8.465586690291e-13       0.000000000000e+00       3.109516955712e-11      -4.125659665592e-12      -5.628966481168e-15 
   94       2.261924327129e-10       5.804168768029e-14      -8.964604493635e-13       0.000000000000e+00       3.031558985748e-11      -4.009925817955e-12      -5.632104220825e-15 
   95       2.281950813526e-10       5.967920345565e-14      -9.472638522502e-13       0.000000000000e+00       2.956096320509e-11      -3.897763609287e-12      -5.669578540668e-15 
   96       2.302165640480e-10       6.133080555119e-14      -9.989482410857e-13       0.000000000000e+00       2.883124554468e-11      -3.789190873895e-12      -5.736643235002e-15 
   97       2.322573438706e-10       6.299557222631e-14      -1.051492014433e-12       0.000000000000e+00       2.812615654943e-11      -3.684193663910e-12      -5.828012920870e-15 
   98       2.343177401852e-10       6.467254520616e-14      -1.104872602887e-12       0.000000000000e+00       2.744517083657e-11      -3.582725045996e-12      -5.937847850819e-15 
   99       2.363979221405e-10       6.636072927112e-14      -1.159066465938e-12       0.000000000000e+00       2.678750918291e-11      -3.484703898069e-12      -6.059738725669e-15 
  100       2.384979021598e-10       6.805909184637e-14      -1.214049088838e-12       0.000000000000e+00       2.615212974049e-11      -3.390013706000e-12      -6.186691507272e-15 
  101       2.406175294321e-10       6.976656259137e-14      -1.269794979467e-12       0.000000000000e+00       2.553771925212e-11      -3.298501360336e-12      -6.311112231285e-15 
  102       2.427564834025e-10       7.148203298937e-14      -1.326277665195e-12       0.000000000000e+00       2.494268426696e-11      -3.209975953005e-12      -6.424791819930e-15 
  103       2.449142672634e-10       7.320435593694e-14      -1.383469689748e-12       0.000000000000e+00       2.436514235612e-11      -3.124207574032e-12      -6.518890894762e-15 
  104       2.470904389474e-10       7.493239642159e-14      -1.441343534044e-12       0.000000000000e+00       2.380335631369e-11      -3.040981790565e-12      -6.585864078716e-15 
  105       2.492853536657e-10       7.666519223533e-14      -1.499874527108e-12       0.000000000000e+00       2.325712248025e-11      -2.960274057024e-12      -6.625561659692e-15 
  106       2.514995100075e-10       7.840181430702e-14      -1.559038324364e-12       0.000000000000e+00       2.272655445807e-11      -2.882096731630e-12      -6.639927696541e-15 
  107       2.537333175431e-10       8.014131770195e-14      -1.618810025717e-12       0.000000000000e+00       2.221165300363e-11      -2.806444913727e-12      -6.631140185705e-15 
