# dimensionless total [l(l+1)/2pi] C_l's
# for l=2 to 3500, i.e. number of multipoles equal to 3499
#
# -> if you prefer output in CAMB/HealPix/LensPix units/order, set 'format' to 'camb' in input file
# -> if you don't want to see such a header, set 'headers' to 'no' in input file
# -> for CMB lensing (phi), these are C_l^phi-phi for the lensing potential.
#    Remember the conversion factors:
#    C_l^dd (deflection) = l(l+1) C_l^phi-phi
#    C_l^gg (shear/convergence) = 1/4 (l(l+1))^2 C_l^phi-phi
#
# 1:l     2:TT                     3:EE                     4:TE                     5:BB                     6:phiphi                 7:TPhi                   8:Ephi               
    2       5.188088864192e-10       2.552992195824e-15       6.563105005142e-13       0.000000000000e+00       2.350895384093e-08      -2.658602113655e-09      -1.857073247530e-12 
    3       3.809203005716e-10       4.872151390331e-15       6.339385223323e-13       0.000000000000e+00       1.395646510751e-08      -1.748196177157e-09      -1.510341817408e-12 
    4       3.058908283979e-10       7.118594106924e-15       6.028961902700e-13       0.000000000000e+00       9.638198962023e-09      -1.269228991068e-09      -1.275629932144e-12 
    5       2.591637390231e-10       8.580100400602e-15       5.596852286970e-13       0.000000000000e+00       7.160925967854e-09      -9.763792978258e-10      -1.072198322630e-12 
    6       2.273970136535e-10       8.931901764276e-15       5.063656950438e-13       0.000000000000e+00       5.560443498438e-09      -7.802918659242e-10      -8.800822265219e-13 
    7       2.045527569903e-10       8.254779481471e-15       4.488913506568e-13       0.000000000000e+00       4.459374361865e-09      -6.412165170173e-10      -7.016134638961e-13 
    8       1.875349737345e-10       6.876099773165e-15       3.915179749202e-13       0.000000000000e+00       3.668916947715e-09      -5.383151454278e-10      -5.397486822901e-13 
    9       1.745127839711e-10       5.208168935003e-15       3.371555731280e-13       0.000000000000e+00       3.081466894844e-09      -4.597014131136e-10      -3.967476225775e-13 
   10       1.643844523970e-10       3.616419487909e-15       2.876294984525e-13       0.000000000000e+00       2.631834936867e-09      -3.980196104001e-10      -2.739629364856e-13 
   11       1.564080480409e-10       2.342069325948e-15       2.439976659653e-13       0.000000000000e+00       1.991584834233e-09      -3.301140712187e-10      -1.725128404607e-13 
   12       1.500371527057e-10       1.481659488673e-15       2.068907991592e-13       0.000000000000e+00       1.725322230790e-09      -2.905131799729e-10      -9.127591260793e-14 
   13       1.449528352849e-10       1.010004983261e-15       1.765588377562e-13       0.000000000000e+00       1.508853335719e-09      -2.576072296173e-10      -2.899875499727e-14 
   14       1.409086380595e-10       8.265864725281e-16       1.529811179832e-13       0.000000000000e+00       1.330382961577e-09      -2.300619388089e-10       1.528582320561e-14 
   15       1.376516293454e-10       8.061023698176e-16       1.359439237180e-13       0.000000000000e+00       1.181440892213e-09      -2.065508663358e-10       4.398689470138e-14 
   16       1.350510519321e-10       8.388542568787e-16       1.249529586035e-13       0.000000000000e+00       1.055810064711e-09      -1.864070137471e-10       5.894997073609e-14 
   17       1.330179384111e-10       8.536561668495e-16       1.192451316143e-13       0.000000000000e+00       9.488457750924e-10      -1.688662805810e-10       6.297786634385e-14 
   18       1.314085755463e-10       8.218871013713e-16       1.179648634667e-13       0.000000000000e+00       8.565782131952e-10      -1.536027121649e-10       5.851597238591e-14 
   19       1.302038478582e-10       7.532772227849e-16       1.203943740229e-13       0.000000000000e+00       7.775701008648e-10      -1.404085916887e-10       4.779889000000e-14 
   20       1.293195178331e-10       6.726168449272e-16       1.254296088152e-13       0.000000000000e+00       7.083726746148e-10      -1.286766497285e-10       3.375930960216e-14 
   21       1.287246570754e-10       6.049959685823e-16       1.322987942650e-13       0.000000000000e+00       6.477766690160e-10      -1.182579179387e-10       1.827026998407e-14 
   22       1.283502288214e-10       5.750740187539e-16       1.401609620058e-13       0.000000000000e+00       5.942841848853e-10      -1.089870294974e-10       3.048075523867e-15 
   23       1.281878415445e-10       5.866867465403e-16       1.484414881339e-13       0.000000000000e+00       5.470802149263e-10      -1.007576152219e-10      -1.067355979646e-14 
   24       1.282103874669e-10       6.335506677509e-16       1.565926927414e-13       0.000000000000e+00       5.049722167543e-10      -9.337784030488e-11      -2.185390002516e-14 
   25       1.284004274932e-10       7.026321560622e-16       1.643066202361e-13       0.000000000000e+00       4.674131698889e-10      -8.674434083920e-11      -3.003064045761e-14 
   26       1.287204706151e-10       7.773490661864e-16       1.713547892029e-13       0.000000000000e+00       4.336793509353e-10      -8.072094480260e-11      -3.505680566945e-14 
   27       1.291666112605e-10       8.489595162329e-16       1.776640859945e-13       0.000000000000e+00       4.033302150861e-10      -7.525583580007e-11      -3.708171881554e-14 
   28       1.297288003647e-10       9.121876372911e-16       1.832367270450e-13       0.000000000000e+00       3.758045981928e-10      -7.028466069961e-11      -3.647854126136e-14 
   29       1.304058349996e-10       9.707351111947e-16       1.881535360185e-13       0.000000000000e+00       3.509403596037e-10      -6.577927709071e-11      -3.367291936889e-14 
   30       1.311785888060e-10       1.032557134517e-15       1.925548046524e-13       0.000000000000e+00       3.284483498865e-10      -6.167617506825e-11      -2.926866196071e-14 
   31       1.320127014088e-10       1.106490985455e-15       1.966136914817e-13       0.000000000000e+00       3.078421491660e-10      -5.787837470543e-11      -2.400203678919e-14 
   32       1.329110334309e-10       1.197088008542e-15       2.004659877155e-13       0.000000000000e+00       2.890022501749e-10      -5.437464219721e-11      -1.837468723052e-14 
   33       1.338773566587e-10       1.307934878102e-15       2.042578828255e-13       0.000000000000e+00       2.717840493109e-10      -5.115826080466e-11      -1.290103662695e-14 
   34       1.349055962263e-10       1.441870859668e-15       2.081396036671e-13       0.000000000000e+00       2.559323958274e-10      -4.820165145929e-11      -8.119618427046e-15 
   35       1.359954579055e-10       1.597050420920e-15       2.121741743051e-13       0.000000000000e+00       2.413577128868e-10      -4.548600239730e-11      -4.275525801526e-15 
   36       1.371399861593e-10       1.769388901365e-15       2.163964131455e-13       0.000000000000e+00       2.279343802181e-10      -4.297788199370e-11      -1.528719196013e-15 
   37       1.383262718409e-10       1.954672794583e-15       2.208184147523e-13       0.000000000000e+00       2.154774613462e-10      -4.063345435978e-11       3.657813561249e-18 
   38       1.395562041258e-10       2.152569744435e-15       2.253687741822e-13       0.000000000000e+00       2.039499994481e-10      -3.844728205493e-11       3.850124433072e-16 
   39       1.408310742728e-10       2.363892422352e-15       2.299302084674e-13       0.000000000000e+00       1.933113551037e-10      -3.641726056337e-11      -2.271754319660e-16 
   40       1.421451183731e-10       2.589530634896e-15       2.343528457237e-13       0.000000000000e+00       1.834543098659e-10      -3.453029232939e-11      -1.612386593878e-15 
   41       1.434891619429e-10       2.830246660689e-15       2.384696181864e-13       0.000000000000e+00       1.742415048523e-10      -3.276740785878e-11      -3.509957320442e-15 
   42       1.448646748676e-10       3.085970537908e-15       2.421540729246e-13       0.000000000000e+00       1.656429180064e-10      -3.112350194955e-11      -5.707716981662e-15 
   43       1.462731055538e-10       3.356282786974e-15       2.452774560300e-13       0.000000000000e+00       1.576334113404e-10      -2.959236431684e-11      -7.974510549229e-15 
   44       1.477115280637e-10       3.640593896265e-15       2.476915194788e-13       0.000000000000e+00       1.501515494413e-10      -2.816057303667e-11      -1.003258843324e-14 
   45       1.491750898821e-10       3.938354170892e-15       2.492547545506e-13       0.000000000000e+00       1.431210078276e-10      -2.681198976324e-11      -1.161451956794e-14 
   46       1.506661848349e-10       4.249781535612e-15       2.499230494222e-13       0.000000000000e+00       1.365292102606e-10      -2.554417997339e-11      -1.266051014141e-14 
   47       1.521873317203e-10       4.575334393094e-15       2.496842542247e-13       0.000000000000e+00       1.303673067303e-10      -2.435594021022e-11      -1.317553522973e-14 
   48       1.537383230540e-10       4.915513355446e-15       2.485336520169e-13       0.000000000000e+00       1.246064887748e-10      -2.324239708318e-11      -1.317562052831e-14 
   49       1.553159833263e-10       5.270863953835e-15       2.464744278187e-13       0.000000000000e+00       1.191965109503e-10      -2.219473345259e-11      -1.268860469812e-14 
   50       1.569159193410e-10       5.642029243384e-15       2.435203712982e-13       0.000000000000e+00       1.140805885746e-10      -2.120289409363e-11      -1.176297573158e-14 
   51       1.585388921812e-10       6.029918165125e-15       2.397037615373e-13       0.000000000000e+00       1.092482884277e-10      -2.026520375237e-11      -1.049543904410e-14 
   52       1.601857569752e-10       6.435587567739e-15       2.350704332491e-13       0.000000000000e+00       1.046944389032e-10      -1.938088649555e-11      -9.012150191588e-15 
   53       1.618554774976e-10       6.860201244135e-15       2.296782907073e-13       0.000000000000e+00       1.004033174207e-10      -1.854718397437e-11      -7.462410074771e-15 
   54       1.635449781724e-10       7.305034989088e-15       2.235978818925e-13       0.000000000000e+00       9.634794254336e-11      -1.775922181989e-11      -6.019807239307e-15 
   55       1.652506591879e-10       7.771228258095e-15       2.168932649186e-13       0.000000000000e+00       9.249818060346e-11      -1.701149377445e-11      -4.846417254264e-15 
   56       1.669737216524e-10       8.258955312694e-15       2.095577258650e-13       0.000000000000e+00       8.884904556571e-11      -1.630305190939e-11      -3.972369215592e-15 
   57       1.687159060929e-10       8.768057028696e-15       2.015630975365e-13       0.000000000000e+00       8.539818954580e-11      -1.563337174981e-11      -3.388361804990e-15 
   58       1.704778638555e-10       9.298271544540e-15       1.928778785992e-13       0.000000000000e+00       8.213734772608e-11      -1.500077846464e-11      -3.079694385836e-15 
   59       1.722590739049e-10       9.849229446247e-15       1.834670398936e-13       0.000000000000e+00       7.905197389544e-11      -1.440237629072e-11      -3.025969968686e-15 
   60       1.740577596233e-10       1.042044895238e-14       1.732918307480e-13       0.000000000000e+00       7.612087598919e-11      -1.383397795676e-11      -3.200798176777e-15 
   61       1.758718787750e-10       1.101148902319e-14       1.623120576788e-13       0.000000000000e+00       7.332204534453e-11      -1.329125172480e-11      -3.570816980763e-15 
   62       1.777025412854e-10       1.162245974086e-14       1.504939563594e-13       0.000000000000e+00       7.065249796812e-11      -1.277362304122e-11      -4.093173288469e-15 
   63       1.795512144692e-10       1.225361846659e-14       1.378037509403e-13       0.000000000000e+00       6.811226038122e-11      -1.228112740044e-11      -4.716947179857e-15 
   64       1.814186693847e-10       1.290522221728e-14       1.242052246228e-13       0.000000000000e+00       6.569840428521e-11      -1.181323869781e-11      -5.383470898227e-15 
   65       1.833049316840e-10       1.357752786131e-14       1.096596044194e-13       0.000000000000e+00       6.340487862332e-11      -1.136883728769e-11      -6.026010200779e-15 
   66       1.852092324628e-10       1.427079231433e-14       9.412544591377e-14       0.000000000000e+00       6.122234164249e-11      -1.094617804158e-11      -6.569445709184e-15 
   67       1.871299591106e-10       1.498527273501e-14       7.755851802131e-14       0.000000000000e+00       5.913799295517e-11      -1.054285840622e-11      -6.929954260141e-15 
   68       1.890654124282e-10       1.572119042973e-14       5.992175346120e-14       0.000000000000e+00       5.713897047474e-11      -1.015645657247e-11      -7.036458399433e-15 
   69       1.910163659912e-10       1.647861363608e-14       4.121769905703e-14       0.000000000000e+00       5.522371589187e-11      -9.786667538632e-12      -6.900734079076e-15 
   70       1.929839394684e-10       1.725755123082e-14       2.146246391048e-14       0.000000000000e+00       5.339262103266e-11      -9.433544476676e-12      -6.561001459116e-15 
   71       1.949688102219e-10       1.805798620011e-14       6.763751131355e-16       0.000000000000e+00       5.164459135985e-11      -9.096852379358e-12      -6.061647487254e-15 
   72       1.969711847770e-10       1.887987490722e-14      -2.111588005827e-14       0.000000000000e+00       4.997696920787e-11      -8.776053256730e-12      -5.453463979414e-15 
   73       1.989907702937e-10       1.972314636006e-14      -4.388511194664e-14       0.000000000000e+00       4.838545701788e-11      -8.470291332634e-12      -4.793885700326e-15 
   74       2.010267460369e-10       2.058770147884e-14      -6.759748631926e-14       0.000000000000e+00       4.686404057285e-11      -8.178378241204e-12      -4.147228444098e-15 
   75       2.030777348474e-10       2.147341236365e-14      -9.221438217256e-14       0.000000000000e+00       4.540491223256e-11      -7.898778223366e-12      -3.584927114797e-15 
   76       2.051424063703e-10       2.238015078047e-14      -1.177019499091e-13       0.000000000000e+00       4.400040267611e-11      -7.629986054085e-12      -3.169754566408e-15 
   77       2.072214768013e-10       2.330788123521e-14      -1.440621124427e-13       0.000000000000e+00       4.264935250275e-11      -7.371773111263e-12      -2.904629489864e-15 
   78       2.093160236662e-10       2.425658362036e-14      -1.713069852190e-13       0.000000000000e+00       4.135176845498e-11      -7.124142694243e-12      -2.774862570598e-15 
   79       2.114268710911e-10       2.522622537130e-14      -1.994497331625e-13       0.000000000000e+00       4.010688298376e-11      -6.886950810194e-12      -2.763258628674e-15 
   80       2.135545742275e-10       2.621676133301e-14      -2.285046273948e-13       0.000000000000e+00       3.891311866973e-11      -6.659899423879e-12      -2.850026211866e-15 
   81       2.156994036779e-10       2.722813362684e-14      -2.584871019540e-13       0.000000000000e+00       3.776805264426e-11      -6.442529707413e-12      -3.012687188723e-15 
   82       2.178613299213e-10       2.826027151726e-14      -2.894138105129e-13       0.000000000000e+00       3.666838101058e-11      -6.234215290026e-12      -3.225986341645e-15 
   83       2.200400077384e-10       2.931309127861e-14      -3.213026830981e-13       0.000000000000e+00       3.560988326495e-11      -6.034155507824e-12      -3.461800959960e-15 
   84       2.222350685657e-10       3.038647862628e-14      -3.541694706012e-13       0.000000000000e+00       3.458844732952e-11      -5.841561710491e-12      -3.694301137316e-15 
   85       2.244470873596e-10       3.148023295560e-14      -3.880165958840e-13       0.000000000000e+00       3.360341783033e-11      -5.656266454614e-12      -3.916611611906e-15 
   86       2.266767482079e-10       3.259411357166e-14      -4.228425498202e-13       0.000000000000e+00       3.265474024159e-11      -5.478203395040e-12      -4.126759192534e-15 
   87       2.289245404062e-10       3.372785588299e-14      -4.586452368968e-13       0.000000000000e+00       3.174193213444e-11      -5.307219753306e-12      -4.322665515679e-15 
   88       2.311907480590e-10       3.488117097531e-14      -4.954219729032e-13       0.000000000000e+00       3.086406542351e-11      -5.143072812054e-12      -4.502144885693e-15 
   89       2.334754396800e-10       3.605374518524e-14      -5.331694826222e-13       0.000000000000e+00       3.001974861342e-11      -4.985426409453e-12      -4.662902115010e-15 
   90       2.357784577929e-10       3.724523967403e-14      -5.718838975197e-13       0.000000000000e+00       2.920710904530e-11      -4.833847433607e-12      -4.802530364349e-15 
   91       2.380994085322e-10       3.845529000123e-14      -6.115607534345e-13       0.000000000000e+00       2.842377514334e-11      -4.687802316977e-12      -4.918508982917e-15 
   92       2.404376512438e-10       3.968350569850e-14      -6.521949882687e-13       0.000000000000e+00       2.766685866132e-11      -4.546653530797e-12      -5.008201348615e-15 
   93       2.427925985541e-10       4.092948813195e-14      -6.937799269927e-13       0.000000000000e+00       2.693364110576e-11      -4.409811335935e-12      -5.069784987784e-15 
   94       2.451646907918e-10       4.219288808844e-14      -7.363040670550e-13       0.000000000000e+00       2.622378966116e-11      -4.277222757442e-12      -5.105206646230e-15 
   95       2.475545495739e-10       4.347335610242e-14      -7.797538029769e-13       0.000000000000e+00       2.553744326640e-11      -4.148950012533e-12      -5.117669735867e-15 
   96       2.499626743398e-10       4.477052476611e-14      -8.241143799660e-13       0.000000000000e+00       2.487453015468e-11      -4.025020450868e-12      -5.110752150803e-15 
   97       2.523894362138e-10       4.608400855420e-14      -8.693698777049e-13       0.000000000000e+00       2.423475976608e-11      -3.905425180157e-12      -5.088416904799e-15 
   98       2.548350718678e-10       4.741340364868e-14      -9.155031941401e-13       0.000000000000e+00       2.361761466026e-11      -3.790117691745e-12      -5.055022768716e-15 
   99       2.572996773833e-10       4.875828776356e-14      -9.624960292716e-13       0.000000000000e+00       2.302234242909e-11      -3.679012486217e-12      -5.015334907971e-15 
  100       2.597832021140e-10       5.011821996965e-14      -1.010328868942e-12       0.000000000000e+00       2.244794760926e-11      -3.571983698989e-12      -4.974535519986e-15 
  101       2.622854425483e-10       5.149274051936e-14      -1.058980968624e-12       0.000000000000e+00       2.189318359501e-11      -3.468863725906e-12      -4.938234471647e-15 
  102       2.648060361717e-10       5.288137067141e-14      -1.108430337213e-12       0.000000000000e+00       2.135654455067e-11      -3.369441848837e-12      -4.912479936748e-15 
  103       2.673444553292e-10       5.428361251565e-14      -1.158653720813e-12       0.000000000000e+00       2.083625732339e-11      -3.273462861273e-12      -4.903769033453e-15 
  104       2.699002295115e-10       5.569893926766e-14      -1.209628861033e-12       0.000000000000e+00       2.033068504666e-11      -3.180683508484e-12      -4.917500776597e-15 
  105       2.724736596301e-10       5.712676503708e-14      -1.261341652226e-12       0.000000000000e+00       1.983961746274e-11      -3.091053451360e-12      -4.953074015850e-15 
  106       2.750651892376e-10       5.856647062971e-14      -1.313779925370e-12       0.000000000000e+00       1.936314063830e-11      -3.004556299668e-12      -5.008144048989e-15 
  107       2.776751811362e-10       6.001741243643e-14      -1.366931268572e-12       0.000000000000e+00       1.890123731826e-11      -2.921153250281e-12      -5.080114771972e-15 
