# total lensed [l(l+1)/2pi] C_l's (units: [microK]^2)
# for l=2 to 2500, i.e. number of multipoles equal to 2499
#
# -> if you don't want to see such a header, set 'headers' to 'no' in input file
# -> for CMB lensing (d), these are C_l^dd for the deflection field.
#    Remember the conversion factors:
#    C_l^dd (deflection) = l(l+1) C_l^phi-phi
#    C_l^gg (shear/convergence) = 1/4 (l(l+1))^2 C_l^phi-phi
#
# 1:l     2:TT                     3:EE                     4:BB                     5:TE                     6:dd                     7:dT                     8:dE                 
    2       9.766744148072e+02       2.856968121634e-02       2.817185248463e-06       2.772708949279e+00       5.759547071971e-08       2.603408082951e-03      -1.204452629601e-05 
    3       9.355512501966e+02       5.340476648168e-02       5.636229560783e-06       3.603453697370e+00       7.096488292597e-08       2.597948584714e-03      -1.562908735478e-05 
    4       8.935072423413e+02       6.956161684384e-02       9.397786519271e-06       3.849906057080e+00       8.258132771312e-08       2.545273826667e-03      -1.701253610983e-05 
    5       8.602966883337e+02       7.275611944976e-02       1.410416830388e-05       3.731056755369e+00       9.283462274432e-08       2.472551820777e-03      -1.663469756685e-05 
    6       8.357708166216e+02       6.453469039085e-02       1.975812717887e-05       3.411097384443e+00       1.018816865434e-07       2.390363381245e-03      -1.485708012847e-05 
    7       8.189140825745e+02       4.989359515371e-02       2.636277145236e-05       3.006309069185e+00       1.099326209395e-07       2.306133425636e-03      -1.209954637916e-05 
    8       8.082013746259e+02       3.429732177646e-02       3.392147214488e-05       2.587797021511e+00       1.171277746306e-07       2.223625503255e-03      -8.800055771672e-06 
    9       8.020776821486e+02       2.165426095436e-02       4.243776395821e-05       2.198606918901e+00       1.235762078169e-07       2.142618681942e-03      -5.380468994919e-06 
   10       7.998583591971e+02       1.356409435020e-02       5.191524433920e-05       1.863487216235e+00       1.293844550799e-07       2.062600885258e-03      -2.207999148152e-06 
   11       8.005049316127e+02       9.648900817775e-03       6.235747448539e-05       1.595237344434e+00       1.298245364526e-07       1.989965718559e-03       4.221178757524e-07 
   12       8.036740401610e+02       8.457352989313e-03       7.376788603757e-05       1.398526980128e+00       1.342881419130e-07       1.908901893969e-03       2.340726644030e-06 
   13       8.087957347831e+02       8.406104348952e-03       8.614969695255e-05       1.271806188800e+00       1.383187610711e-07       1.840725072059e-03       3.503067335531e-06 
   14       8.152639882601e+02       8.398456674664e-03       9.950583965895e-05       1.208882358865e+00       1.419663694649e-07       1.777186388245e-03       3.906862269245e-06 
   15       8.231143985720e+02       8.013091332235e-03       1.138389040846e-04       1.199145798526e+00       1.452698610859e-07       1.710491499995e-03       3.631211192578e-06 
   16       8.314217706734e+02       7.357142261119e-03       1.291510975269e-04       1.230564452069e+00       1.482635600878e-07       1.650936700131e-03       2.841490610164e-06 
   17       8.409485711634e+02       6.768845951358e-03       1.454442226436e-04       1.291020534217e+00       1.509776420618e-07       1.598568886516e-03       1.716286460455e-06 
   18       8.510679960484e+02       6.561024664673e-03       1.627196653017e-04       1.367634595429e+00       1.533787649332e-07       1.549660949934e-03       4.496839060818e-07 
   19       8.616492582770e+02       6.811750401620e-03       1.809784536208e-04       1.452133650701e+00       1.556673946024e-07       1.503964385654e-03      -7.996364292540e-07 
   20       8.725275914282e+02       7.480718592821e-03       2.002211942395e-04       1.536013508891e+00       1.576774090487e-07       1.458570835687e-03      -1.870110126319e-06 
   21       8.838185519267e+02       8.420499085459e-03       2.204482499639e-04       1.614605864642e+00       1.595103523860e-07       1.415175776389e-03      -2.662866266985e-06 
   22       8.954991855486e+02       9.433435969233e-03       2.416596644305e-04       1.684527935322e+00       1.611375312839e-07       1.375335825787e-03      -3.124609981287e-06 
   23       9.075586223432e+02       1.046928874259e-02       2.638553767700e-04       1.745298821157e+00       1.626405928767e-07       1.339091665480e-03      -3.243813964050e-06 
   24       9.198399925124e+02       1.153952113001e-02       2.870351458131e-04       1.797741892540e+00       1.639618971241e-07       1.304236843290e-03      -3.058045439294e-06 
   25       9.323602851835e+02       1.272877573692e-02       3.111988043586e-04       1.843206948255e+00       1.651648167920e-07       1.269681893721e-03      -2.635200169040e-06 
   26       9.450734053873e+02       1.414780187920e-02       3.363461662185e-04       1.883531284970e+00       1.662237180987e-07       1.234098881359e-03      -2.080774054195e-06 
   27       9.579353599901e+02       1.584990632248e-02       3.624772512784e-04       1.920537320291e+00       1.671703140181e-07       1.199271993446e-03      -1.479505808505e-06 
   28       9.708402132266e+02       1.786265361117e-02       3.895922262232e-04       1.956047039269e+00       1.679623355730e-07       1.167473372960e-03      -9.196694727404e-07 
   29       9.838451720345e+02       2.017180373145e-02       4.176916743146e-04       1.990803279551e+00       1.686855004696e-07       1.138929683627e-03      -4.589911111605e-07 
   30       9.969765218239e+02       2.273919516261e-02       4.467764377334e-04       2.025183582005e+00       1.693631307573e-07       1.112031915161e-03      -1.495371361922e-07 
   31       1.010189354250e+03       2.552290578998e-02       4.768476188150e-04       2.059246238069e+00       1.699002670598e-07       1.084353040054e-03      -3.774375165099e-08 
   32       1.023526589043e+03       2.852366169140e-02       5.079067822313e-04       2.091867334024e+00       1.703494718590e-07       1.056557215152e-03      -1.202669688354e-07 
   33       1.037000870832e+03       3.175542543156e-02       5.399558861165e-04       2.121215418980e+00       1.707442351208e-07       1.030265722262e-03      -3.608566091838e-07 
   34       1.050574837946e+03       3.523058520870e-02       5.729972374016e-04       2.145124024064e+00       1.710419091424e-07       1.006767932344e-03      -7.040900805187e-07 
   35       1.064269714474e+03       3.894983148573e-02       6.070333947579e-04       2.161765511271e+00       1.712799348419e-07       9.858742906171e-04      -1.103072819672e-06 
   36       1.078082088357e+03       4.290852967582e-02       6.420672872980e-04       2.169163178652e+00       1.714660016774e-07       9.663204898563e-04      -1.500108786659e-06 
   37       1.091975083913e+03       4.710140010875e-02       6.781021089804e-04       2.165326476502e+00       1.715536393027e-07       9.464639906376e-04      -1.830274453757e-06 
   38       1.105968891086e+03       5.153009842825e-02       7.151407592194e-04       2.149407662617e+00       1.715880487993e-07       9.263646770353e-04      -2.068413131392e-06 
   39       1.120071452880e+03       5.619801782367e-02       7.531862559732e-04       2.120917745236e+00       1.716113533099e-07       9.065306367422e-04      -2.202494729631e-06 
   40       1.134248679663e+03       6.110825114109e-02       7.922419083505e-04       2.079422339710e+00       1.716077609423e-07       8.873643840884e-04      -2.222540955562e-06 
   41       1.148452166652e+03       6.626561748651e-02       8.323110503262e-04       2.024671093291e+00       1.715216019217e-07       8.691353854072e-04      -2.125347817365e-06 
   42       1.162723621614e+03       7.168354853172e-02       8.733960949217e-04       1.957026015129e+00       1.713795410978e-07       8.519638239864e-04      -1.930119187442e-06 
   43       1.177117133754e+03       7.737943479727e-02       9.154992020341e-04       1.877180015356e+00       1.712115745697e-07       8.357737553206e-04      -1.671225369356e-06 
   44       1.191667960750e+03       8.337291892708e-02       9.586225341857e-04       1.786056704466e+00       1.710089104525e-07       8.202503881459e-04      -1.396129559122e-06 
   45       1.206393172722e+03       8.968183827986e-02       1.002767989526e-03       1.684578067566e+00       1.707385081160e-07       8.049766370494e-04      -1.156007470663e-06 
   46       1.221298851902e+03       9.630829172850e-02       1.047936310147e-03       1.572854055140e+00       1.704290596673e-07       7.900168637038e-04      -9.685104477710e-07 
   47       1.236371408568e+03       1.032486343934e-01       1.094127703943e-03       1.450772805147e+00       1.701140460570e-07       7.755223267282e-04      -8.412759747652e-07 
   48       1.251573059492e+03       1.104972017746e-01       1.141342069834e-03       1.318223812932e+00       1.698028403255e-07       7.615617039937e-04      -7.813878039277e-07 
   49       1.266839850164e+03       1.180462018496e-01       1.189578980587e-03       1.175096791460e+00       1.694733656522e-07       7.481054289686e-04      -7.952149259453e-07 
   50       1.282107279999e+03       1.258878558457e-01       1.238837628343e-03       1.021204946019e+00       1.690864099428e-07       7.350670854377e-04      -8.849148384219e-07 
   51       1.297399966472e+03       1.340217559369e-01       1.289116683611e-03       8.560328905103e-01       1.686586909375e-07       7.224878105680e-04      -1.036661649019e-06 
   52       1.312762900586e+03       1.424493181951e-01       1.340414368311e-03       6.789183357275e-01       1.682142320860e-07       7.103973390042e-04      -1.227400700883e-06 
   53       1.328235308357e+03       1.511717064370e-01       1.392728471249e-03       4.891171091539e-01       1.677613352729e-07       6.987522398087e-04      -1.427110387169e-06 
   54       1.343849971998e+03       1.601898301419e-01       1.446056329192e-03       2.857984582290e-01       1.672882490959e-07       6.874249258495e-04      -1.598089509896e-06 
   55       1.359632179706e+03       1.695039931342e-01       1.500395188063e-03       6.823338434621e-02       1.667732142381e-07       6.762606331069e-04      -1.703779332806e-06 
   56       1.375597824602e+03       1.791127421996e-01       1.555743435002e-03      -1.635748072918e-01       1.662324505325e-07       6.653009958680e-04      -1.740892888856e-06 
   57       1.391753644530e+03       1.890137287933e-01       1.612099639223e-03      -4.093726421057e-01       1.656870227909e-07       6.546225416033e-04      -1.717813069937e-06 
   58       1.408096873876e+03       1.992040178688e-01       1.669462194661e-03      -6.688330203624e-01       1.651476149101e-07       6.442706338938e-04      -1.646362576895e-06 
   59       1.424614550286e+03       2.096800721883e-01       1.727829315864e-03      -9.415523932310e-01       1.646118541198e-07       6.342545339288e-04      -1.542151811193e-06 
   60       1.441282821379e+03       2.204377366350e-01       1.787199033866e-03      -1.227047938838e+00       1.640613904163e-07       6.245422446881e-04      -1.424939497873e-06 
   61       1.458077318209e+03       2.314724002919e-01       1.847569766277e-03      -1.524842856757e+00       1.634716469320e-07       6.150848349262e-04      -1.314790810686e-06 
   62       1.475008564973e+03       2.427795606854e-01       1.908942186412e-03      -1.834751012385e+00       1.628540480934e-07       6.059117194371e-04      -1.218145798954e-06 
   63       1.492093323314e+03       2.543543589295e-01       1.971317768307e-03      -2.156651463683e+00       1.622267435514e-07       5.970576666262e-04      -1.137754442978e-06 
   64       1.509343891560e+03       2.661914032834e-01       2.034698263352e-03      -2.490405953191e+00       1.616019231836e-07       5.885327994116e-04      -1.076491092132e-06 
   65       1.526767762578e+03       2.782847591041e-01       2.099085714396e-03      -2.835858880014e+00       1.609843343599e-07       5.803193635940e-04      -1.037351395282e-06 
   66       1.544367281621e+03       2.906279387978e-01       2.164482469842e-03      -3.192837271810e+00       1.603696742635e-07       5.723683708447e-04      -1.023448913680e-06 
   67       1.562139304189e+03       3.032138917720e-01       2.230891197750e-03      -3.561150756779e+00       1.597428532816e-07       5.645961163111e-04      -1.038011416325e-06 
   68       1.580079986634e+03       3.160350735889e-01       2.298314860385e-03      -3.940617263808e+00       1.590854834820e-07       5.569136781060e-04      -1.083248662141e-06 
   69       1.598201049984e+03       3.290836921589e-01       2.366756600357e-03      -4.331146232623e+00       1.584064147143e-07       5.493342763675e-04      -1.156562372978e-06 
   70       1.616516212095e+03       3.423514936112e-01       2.436219856636e-03      -4.732672291353e+00       1.577199984815e-07       5.418918509594e-04      -1.253184714970e-06 
   71       1.635036139380e+03       3.558296796261e-01       2.506708414912e-03      -5.145131638880e+00       1.570370050305e-07       5.346094009249e-04      -1.367116459435e-06 
   72       1.653768235940e+03       3.695088994127e-01       2.578226420689e-03      -5.568462674839e+00       1.563637904902e-07       5.274975637837e-04      -1.491030071077e-06 
   73       1.672716432687e+03       3.833792416869e-01       2.650778392367e-03      -6.002606629617e+00       1.557014002330e-07       5.205531436142e-04      -1.616169951233e-06 
   74       1.691880976470e+03       3.974302266478e-01       2.724369234335e-03      -6.447508194341e+00       1.550446066192e-07       5.137575879228e-04      -1.732249836142e-06 
   75       1.711258219202e+03       4.116507979559e-01       2.799004250059e-03      -6.903116150883e+00       1.543808792804e-07       5.070754132977e-04      -1.827347350255e-06 
   76       1.730843664720e+03       4.260297022211e-01       2.874688467394e-03      -7.369335899296e+00       1.536959387169e-07       5.004696196566e-04      -1.890849209158e-06 
   77       1.750642216957e+03       4.405567250931e-01       2.951424443548e-03      -7.845875653287e+00       1.529953819399e-07       4.939565491329e-04      -1.923471144392e-06 
   78       1.770659426139e+03       4.552216670503e-01       3.029214081759e-03      -8.332373212018e+00       1.522888259400e-07       4.875629949724e-04      -1.929767585349e-06 
   79       1.790898255101e+03       4.700139758098e-01       3.108059282572e-03      -8.828441223880e+00       1.515834679400e-07       4.813097600717e-04      -1.915387389325e-06 
   80       1.811358935213e+03       4.849227462520e-01       3.187961942812e-03      -9.333666830112e+00       1.508835968740e-07       4.752109296421e-04      -1.887151839230e-06 
   81       1.832038822310e+03       4.999367203433e-01       3.268923954580e-03      -9.847611308408e+00       1.501900715294e-07       4.692731200630e-04      -1.853134707363e-06 
   82       1.852932252617e+03       5.150442870606e-01       3.350947204232e-03      -1.036980971654e+01       1.494997644900e-07       4.634947039286e-04      -1.822744385265e-06 
   83       1.874030398683e+03       5.302334823145e-01       3.434033571364e-03      -1.089977053596e+01       1.488049710150e-07       4.578650112847e-04      -1.806808079635e-06 
   84       1.895324863737e+03       5.454915990877e-01       3.518184976523e-03      -1.143699978569e+01       1.480971199984e-07       4.523709534953e-04      -1.815078700089e-06 
   85       1.916819465009e+03       5.608039437592e-01       3.603403535629e-03      -1.198107873763e+01       1.473807963971e-07       4.470206563396e-04      -1.847843731005e-06 
   86       1.938520148771e+03       5.761548725062e-01       3.689691429409e-03      -1.253159849132e+01       1.466631537040e-07       4.418241667634e-04      -1.902397197493e-06 
   87       1.960431345540e+03       5.915281562289e-01       3.777050856761e-03      -1.308813670318e+01       1.459496907284e-07       4.367860131332e-04      -1.975399510573e-06 
   88       1.982555888838e+03       6.069069739223e-01       3.865484034554e-03      -1.365025764145e+01       1.452439519624e-07       4.319046806616e-04      -2.062835782250e-06 
   89       2.004894933951e+03       6.222739060496e-01       3.954993197436e-03      -1.421751224103e+01       1.445472094565e-07       4.271720719113e-04      -2.159973128451e-06 
   90       2.027447876688e+03       6.376109279143e-01       4.045580597637e-03      -1.478943815837e+01       1.438581257680e-07       4.225729523773e-04      -2.261316959805e-06 
   91       2.050212272141e+03       6.528994030334e-01       4.137248504769e-03      -1.536555982637e+01       1.431723975478e-07       4.180843811466e-04      -2.360566260279e-06 
   92       2.073183753443e+03       6.681200765094e-01       4.229999205637e-03      -1.594538850922e+01       1.424823793328e-07       4.136751266368e-04      -2.450567853665e-06 
   93       2.096357915425e+03       6.832542663423e-01       4.323835789981e-03      -1.652843925672e+01       1.417802452173e-07       4.093152376291e-04      -2.524780870076e-06 
   94       2.119736466112e+03       6.982876567167e-01       4.418764643321e-03      -1.711428456475e+01       1.410694835377e-07       4.050085784473e-04      -2.582154704081e-06 
   95       2.143321854510e+03       7.132070656267e-01       4.514793330419e-03      -1.770250892437e+01       1.403560846146e-07       4.007664973707e-04      -2.623261051964e-06 
   96       2.167115334604e+03       7.279993074550e-01       4.611929853195e-03      -1.829269292446e+01       1.396451234650e-07       3.965980790391e-04      -2.648891401334e-06 
   97       2.191116911089e+03       7.426512027902e-01       4.710182661318e-03      -1.888441353866e+01       1.389405967123e-07       3.925099223201e-04      -2.660071132642e-06 
   98       2.215325285104e+03       7.571495882429e-01       4.809560662797e-03      -1.947724441218e+01       1.382452502036e-07       3.885059122129e-04      -2.658073939735e-06 
   99       2.239737799957e+03       7.714813262620e-01       4.910073234580e-03      -2.007075614862e+01       1.375603971324e-07       3.845869857889e-04      -2.644436569469e-06 
  100       2.264350386859e+03       7.856333149520e-01       5.011730233137e-03      -2.066451659692e+01       1.368857264675e-07       3.807508921700e-04      -2.620973880360e-06 
  101       2.289157510658e+03       7.995924978887e-01       5.114542005061e-03      -2.125809113811e+01       1.362191014900e-07       3.769919465424e-04      -2.589794220286e-06 
  102       2.314152115564e+03       8.133458739365e-01       5.218519397655e-03      -2.185104297223e+01       1.355563482364e-07       3.733007782085e-04      -2.553315123238e-06 
  103       2.339325570887e+03       8.268805070645e-01       5.323673769528e-03      -2.244293340516e+01       1.348910336498e-07       3.696640726750e-04      -2.514279325116e-06 
  104       2.364669605754e+03       8.401833349776e-01       5.430016066115e-03      -2.303330426472e+01       1.342168596825e-07       3.660692083250e-04      -2.475238304841e-06 
  105       2.390182527833e+03       8.532405444257e-01       5.537553881205e-03      -2.362162182582e+01       1.335361154992e-07       3.625198245354e-04      -2.436847015431e-06 
  106       2.415863747404e+03       8.660381294159e-01       5.646294016365e-03      -2.420732580989e+01       1.328530514895e-07       3.590229061838e-04      -2.399255060447e-06 
  107       2.441711831369e+03       8.785620923765e-01       5.756243380884e-03      -2.478984666868e+01       1.321713630543e-07       3.555840420147e-04      -2.362608868743e-06 
