# total lensed [l(l+1)/2pi] C_l's (units: [microK]^2)
# for l=2 to 2500, i.e. number of multipoles equal to 2499
#
# -> if you don't want to see such a header, set 'headers' to 'no' in input file
# -> for CMB lensing (d), these are C_l^dd for the deflection field.
#    Remember the conversion factors:
#    C_l^dd (deflection) = l(l+1) C_l^phi-phi
#    C_l^gg (shear/convergence) = 1/4 (l(l+1))^2 C_l^phi-phi
#
# 1:l     2:TT                     3:EE                     4:BB                     5:TE                     6:dd                     7:dT                     8:dE                 
    2       1.083721078314e+03       4.945495397946e-02       1.804187173115e-06       3.348451181255e+00       5.219870852890e-08       3.255161745099e-03      -1.582382271478e-05 
    3       1.017178154740e+03       7.963471401369e-02       3.609788269181e-06       4.158782774370e+00       6.427220453075e-08       3.241637613611e-03      -1.924509533526e-05 
    4       9.550614507833e+02       8.815546643824e-02       6.019409719998e-06       4.229314810101e+00       7.457622191789e-08       3.160187070009e-03      -1.925290652886e-05 
    5       9.074941256708e+02       7.684298309648e-02       9.034810150944e-06       3.886944569434e+00       8.359606526257e-08       3.053592933335e-03      -1.683030584416e-05 
    6       8.735173869044e+02       5.555874503470e-02       1.265808299250e-05       3.353173488490e+00       9.150811503426e-08       2.938294667727e-03      -1.285820621147e-05 
    7       8.506546485575e+02       3.451524697665e-02       1.689159261807e-05       2.773658178494e+00       9.851512718887e-08       2.821202141544e-03      -8.217085087395e-06 
    8       8.357976345457e+02       1.959320242536e-02       2.173790342966e-05       2.233870795456e+00       1.047479281078e-07       2.705270757995e-03      -3.693194447457e-06 
    9       8.274593308647e+02       1.173508305088e-02       2.719970462214e-05       1.780493793853e+00       1.102936369688e-07       2.593090266788e-03       9.619759069972e-08 
   10       8.241167104335e+02       8.811003307296e-03       3.327973351007e-05       1.435062734718e+00       1.152328460728e-07       2.487222561537e-03       2.758332380307e-06 
   11       8.243466718911e+02       8.024002474107e-03       3.998070033846e-05       1.201966897401e+00       1.166847898504e-07       2.396423036882e-03       4.124978778008e-06 
   12       8.277610815664e+02       7.496298093325e-03       4.730521741879e-05       1.071107893388e+00       1.205326461744e-07       2.302950346268e-03       4.311931112040e-06 
   13       8.332467090163e+02       6.645706725542e-03       5.525573523753e-05       1.023508859541e+00       1.239819817231e-07       2.215297773320e-03       3.533704466064e-06 
   14       8.403133714095e+02       5.722342706038e-03       6.383448788413e-05       1.036780392791e+00       1.270748472927e-07       2.131712243925e-03       2.128305288795e-06 
   15       8.489695494988e+02       5.139915541218e-03       7.304344975155e-05       1.088089733994e+00       1.298502200175e-07       2.056723056947e-03       4.729878630148e-07 
   16       8.588123714582e+02       5.060114762946e-03       8.288430499052e-05       1.157833839198e+00       1.323409624430e-07       1.988528517853e-03      -1.097049149739e-06 
   17       8.695572174647e+02       5.347503822597e-03       9.335843066827e-05       1.231808403624e+00       1.345746722802e-07       1.922634814601e-03      -2.330040959920e-06 
   18       8.811184664729e+02       5.738259758977e-03       1.044668873595e-04       1.299830956206e+00       1.365223776675e-07       1.858383151564e-03      -3.072816293372e-06 
   19       8.935094885452e+02       6.128287546832e-03       1.162104635619e-04       1.358758096297e+00       1.383626563471e-07       1.797386540220e-03      -3.282614185194e-06 
   20       9.063557393182e+02       6.484200651144e-03       1.285896271445e-04       1.407970749561e+00       1.399492258086e-07       1.737430830370e-03      -3.028624836521e-06 
   21       9.197350878087e+02       6.919245599315e-03       1.416046592354e-04       1.449827863835e+00       1.413746560989e-07       1.680869018531e-03      -2.429439372625e-06 
   22       9.336300826425e+02       7.597589776913e-03       1.552555968652e-04       1.488338521420e+00       1.426123735861e-07       1.629278467417e-03      -1.679139112805e-06 
   23       9.479928384694e+02       8.566958579575e-03       1.695423943122e-04       1.527213574923e+00       1.437364276995e-07       1.581915924272e-03      -9.336411934955e-07 
   24       9.626127047489e+02       9.823890239775e-03       1.844648653799e-04       1.570039948990e+00       1.446957556777e-07       1.535258938939e-03      -3.516906688613e-07 
   25       9.774925591958e+02       1.132656537220e-02       2.000228738157e-04       1.618094354051e+00       1.455480992377e-07       1.489075033006e-03      -2.058837018260e-08 
   26       9.926032336296e+02       1.301880747767e-02       2.162162628728e-04       1.671355095904e+00       1.462708441427e-07       1.443545095648e-03       1.694857192962e-08 
   27       1.008007685202e+03       1.489607185970e-02       2.330450231589e-04       1.727904984685e+00       1.468926754969e-07       1.400733960792e-03      -2.006228195092e-07 
   28       1.023720017598e+03       1.696611500591e-02       2.505092471756e-04       1.784713056936e+00       1.473754910839e-07       1.362504411630e-03      -5.825494528118e-07 
   29       1.039773157769e+03       1.922315104668e-02       2.686093282963e-04       1.838742572493e+00       1.477965953289e-07       1.328665738018e-03      -1.055706966333e-06 
   30       1.056105719214e+03       2.165340425672e-02       2.873458437661e-04       1.886311214923e+00       1.481773893952e-07       1.296823168111e-03      -1.526536847117e-06 
   31       1.072581282975e+03       2.424242431930e-02       3.067195538476e-04       1.923537732136e+00       1.484329852130e-07       1.263509679972e-03      -1.884115028043e-06 
   32       1.089241570172e+03       2.699321751238e-02       3.267315459504e-04       1.948931732235e+00       1.486107672942e-07       1.229288614865e-03      -2.086452705724e-06 
   33       1.106129230197e+03       2.991493729181e-02       3.473831864857e-04       1.961762267481e+00       1.487409339068e-07       1.195985065260e-03      -2.117200840546e-06 
   34       1.123232109932e+03       3.302044522228e-02       3.686760857639e-04       1.961632383584e+00       1.487853310886e-07       1.165121590157e-03      -1.974514284085e-06 
   35       1.140549498845e+03       3.633360021285e-02       3.906120155216e-04       1.949285780081e+00       1.487776676802e-07       1.136818247952e-03      -1.700593155247e-06 
   36       1.158035779205e+03       3.988502246408e-02       4.131930026369e-04       1.926129954042e+00       1.487250555382e-07       1.110169279824e-03      -1.371528474821e-06 
   37       1.175618424946e+03       4.370416536197e-02       4.364212482797e-04       1.893714272354e+00       1.485860879039e-07       1.083872712762e-03      -1.075791308368e-06 
   38       1.193344693522e+03       4.779750354088e-02       4.602986974030e-04       1.852552369083e+00       1.484013099197e-07       1.058111808848e-03      -8.470437329812e-07 
   39       1.211275075077e+03       5.216312867811e-02       4.848273539013e-04       1.802935323001e+00       1.482085000489e-07       1.033392542025e-03      -7.030254369930e-07 
   40       1.229439365332e+03       5.679634211499e-02       5.100094113752e-04       1.745252540239e+00       1.479936611752e-07       1.010018918644e-03      -6.620561909191e-07 
   41       1.247840185289e+03       6.169176841387e-02       5.358470508051e-04       1.679705699057e+00       1.477071457540e-07       9.880863744194e-04      -7.353442690103e-07 
   42       1.266473683667e+03       6.685098724863e-02       5.623417253940e-04       1.605328418100e+00       1.473728054821e-07       9.675855991000e-04      -8.997872160065e-07 
   43       1.285309436600e+03       7.227706126430e-02       5.894946631962e-04       1.520654578342e+00       1.470174797063e-07       9.482636360599e-04      -1.111805701837e-06 
   44       1.304280767190e+03       7.797241033130e-02       6.173070587594e-04       1.423965626044e+00       1.466334242632e-07       9.295353784837e-04      -1.311960815110e-06 
   45       1.323315289833e+03       8.393934455280e-02       6.457798765162e-04       1.313633068179e+00       1.461912695866e-07       9.106987466078e-04      -1.438894117456e-06 
   46       1.342444865879e+03       9.018193347591e-02       6.749131974778e-04       1.189305032542e+00       1.457165912584e-07       8.918293115047e-04      -1.483542610187e-06 
   47       1.361723154540e+03       9.670463783090e-02       7.047066724576e-04       1.051047754006e+00       1.452392295938e-07       8.731900512678e-04      -1.455581351840e-06 
   48       1.381193585763e+03       1.035117896887e-01       7.351596853152e-04       8.990229968443e-01       1.447675849674e-07       8.549833135179e-04      -1.370188853538e-06 
   49       1.400888146530e+03       1.106075910964e-01       7.662713389911e-04       7.334929935341e-01       1.442821085901e-07       8.373367922027e-04      -1.248734290037e-06 
   50       1.420825714048e+03       1.179954818813e-01       7.980404262096e-04       5.547865596395e-01       1.437480175691e-07       8.203188146321e-04      -1.115512488846e-06 
   51       1.441009337727e+03       1.256760439280e-01       8.304653646131e-04       3.631751372116e-01       1.431801589246e-07       8.040276183411e-04      -9.846131514187e-07 
   52       1.461426121469e+03       1.336485256825e-01       8.635442198803e-04       1.589716417947e-01       1.425998646310e-07       7.885121848674e-04      -8.690113974061e-07 
   53       1.482046406573e+03       1.419113929496e-01       8.972747051804e-04      -5.743061642587e-02       1.420145286945e-07       7.737328503169e-04      -7.843207913480e-07 
   54       1.502822536705e+03       1.504622978422e-01       9.316541664859e-04      -2.855548208289e-01       1.414137808008e-07       7.595479585351e-04      -7.490266329526e-07 
   55       1.523707349278e+03       1.592987425164e-01       9.666798693415e-04      -5.249957536740e-01       1.407783804264e-07       7.457747233801e-04      -7.792016889009e-07 
   56       1.544717858204e+03       1.684203345962e-01       1.002349976243e-03      -7.759373624381e-01       1.401226786988e-07       7.324320675590e-04      -8.697454122051e-07 
   57       1.565885228061e+03       1.778270376567e-01       1.038662786333e-03      -1.038758317516e+00       1.394653150223e-07       7.195626277856e-04      -1.006666014272e-06 
   58       1.587235977452e+03       1.875185216335e-01       1.075616452343e-03      -1.313888046099e+00       1.388157583457e-07       7.071589940782e-04      -1.171627538271e-06 
   59       1.608791512545e+03       1.974941588414e-01       1.113208977649e-03      -1.601809784687e+00       1.381719528791e-07       6.951566717696e-04      -1.341532266705e-06 
   60       1.630567660607e+03       2.077530199934e-01       1.151438213331e-03      -1.903063631593e+00       1.375177488374e-07       6.834267452133e-04      -1.488088168377e-06 
   61       1.652575749462e+03       2.182936090582e-01       1.190302293179e-03      -2.218127286063e+00       1.368314957545e-07       6.718269467272e-04      -1.584652673838e-06 
   62       1.674827184275e+03       2.291130072969e-01       1.229801059471e-03      -2.547020078401e+00       1.361232463028e-07       6.603931190819e-04      -1.630536159305e-06 
   63       1.697329075001e+03       2.402075291568e-01       1.269934953464e-03      -2.889615072397e+00       1.354089726607e-07       6.491981775304e-04      -1.634029211157e-06 
   64       1.720082371979e+03       2.515729544539e-01       1.310704616419e-03      -3.245752723808e+00       1.346993988073e-07       6.382961898330e-04      -1.606024084451e-06 
   65       1.743081448518e+03       2.632045161049e-01       1.352110900558e-03      -3.615240051958e+00       1.339987017647e-07       6.277194999410e-04      -1.560246553505e-06 
   66       1.766313683483e+03       2.750968878594e-01       1.394154880014e-03      -3.997849811332e+00       1.333031036567e-07       6.174757351020e-04      -1.513495373061e-06 
   67       1.789759043886e+03       2.872441720327e-01       1.436837861787e-03      -4.393319663177e+00       1.325993511081e-07       6.075446963873e-04      -1.485889350059e-06 
   68       1.813397876331e+03       2.996400309135e-01       1.480161353715e-03      -4.801378178427e+00       1.318712880218e-07       5.978955619880e-04      -1.496166485318e-06 
   69       1.837237047678e+03       3.122781393307e-01       1.524126936371e-03      -5.221830816562e+00       1.311266478893e-07       5.885520957447e-04      -1.545317832058e-06 
   70       1.861288375647e+03       3.251518021717e-01       1.568736384763e-03      -5.654489960196e+00       1.303779896111e-07       5.795413260345e-04      -1.628467248138e-06 
   71       1.885560684867e+03       3.382538103812e-01       1.613991718704e-03      -6.099149485568e+00       1.296347341609e-07       5.708728917024e-04      -1.739291584536e-06 
   72       1.910059599414e+03       3.515764323681e-01       1.659895212664e-03      -6.555584620364e+00       1.289024393280e-07       5.625370087433e-04      -1.869903376205e-06 
   73       1.934787335336e+03       3.651114054126e-01       1.706449405624e-03      -7.023551801535e+00       1.281820190708e-07       5.545023661722e-04      -2.010730041907e-06 
   74       1.959742493196e+03       3.788499270725e-01       1.753657110931e-03      -7.502788533117e+00       1.274689058807e-07       5.467139510836e-04      -2.150389593004e-06 
   75       1.984919850597e+03       3.927826465908e-01       1.801521426154e-03      -7.993013244053e+00       1.267521545618e-07       5.390908028996e-04      -2.275562851237e-06 
   76       2.010314087344e+03       4.068996607581e-01       1.850045222616e-03      -8.493944170506e+00       1.260192880952e-07       5.315518405281e-04      -2.373914260528e-06 
   77       2.035932203769e+03       4.211905196270e-01       1.899229484756e-03      -9.005360292309e+00       1.252751614665e-07       5.241068518594e-04      -2.444083507584e-06 
   78       2.061783000542e+03       4.356442062325e-01       1.949074684441e-03      -9.527051301885e+00       1.245281346274e-07       5.167860487040e-04      -2.488174335018e-06 
   79       2.087873222169e+03       4.502491238647e-01       1.999581273616e-03      -1.005879980947e+01       1.237844588637e-07       5.096133209407e-04      -2.508986564463e-06 
   80       2.114207430171e+03       4.649930875663e-01       2.050749683490e-03      -1.060038159105e+01       1.230478539919e-07       5.026054586041e-04      -2.510068437183e-06 
   81       2.140787876255e+03       4.798633156316e-01       2.102580323721e-03      -1.115156583629e+01       1.223190567892e-07       4.957713484245e-04      -2.495770372416e-06 
   82       2.167614375491e+03       4.948464211043e-01       2.155073581601e-03      -1.171211539646e+01       1.215953399110e-07       4.891111448220e-04      -2.471300143467e-06 
   83       2.194684179486e+03       5.099284032757e-01       2.208229821242e-03      -1.228178703239e+01       1.208700005539e-07       4.826154153530e-04      -2.442779471540e-06 
   84       2.221993898141e+03       5.250953583569e-01       2.262049457335e-03      -1.286030745760e+01       1.201355804932e-07       4.762719840928e-04      -2.415960721229e-06 
   85       2.249545908779e+03       5.403357654830e-01       2.316533192280e-03      -1.344729636144e+01       1.193960294739e-07       4.700904162266e-04      -2.391876876241e-06 
   86       2.277342781929e+03       5.556385658546e-01       2.371681817055e-03      -1.404233102007e+01       1.186575244380e-07       4.640819783636e-04      -2.370220906428e-06 
   87       2.305385236177e+03       5.709924807907e-01       2.427496140568e-03      -1.464496921010e+01       1.179248087203e-07       4.582518925117e-04      -2.350587109229e-06 
   88       2.333672045768e+03       5.863860153147e-01       2.483976990095e-03      -1.525474904972e+01       1.172009343729e-07       4.525987616509e-04      -2.332463960194e-06 
   89       2.362199948219e+03       6.018074617393e-01       2.541125211719e-03      -1.587118883981e+01       1.164869886363e-07       4.471139789774e-04      -2.315226780525e-06 
   90       2.390963551918e+03       6.172449032514e-01       2.598941670767e-03      -1.649378690511e+01       1.157818041855e-07       4.417811208179e-04      -2.298130221638e-06 
   91       2.419955243727e+03       6.326862174980e-01       2.657427252248e-03      -1.712202143532e+01       1.150816527808e-07       4.365753232145e-04      -2.280300566737e-06 
   92       2.449165096594e+03       6.481190801705e-01       2.716582861294e-03      -1.775535032623e+01       1.143799219502e-07       4.314626421797e-04      -2.260727849411e-06 
   93       2.478583809796e+03       6.635308283907e-01       2.776410038819e-03      -1.839323502364e+01       1.136698404454e-07       4.264106320662e-04      -2.238529634106e-06 
   94       2.508212236221e+03       6.789080195738e-01       2.836912913478e-03      -1.903521650232e+01       1.129543845622e-07       4.214242912381e-04      -2.213828832656e-06 
   95       2.538053123832e+03       6.942368125382e-01       2.898096545459e-03      -1.968085047372e+01       1.122386855521e-07       4.165169812231e-04      -2.187058257285e-06 
   96       2.568108160608e+03       7.095031034323e-01       2.959966346182e-03      -2.032968456972e+01       1.115270861170e-07       4.116996653849e-04      -2.158708671331e-06 
   97       2.598377923778e+03       7.246925273950e-01       3.022528087185e-03      -2.098125851323e+01       1.108230012338e-07       4.069806699688e-04      -2.129331666725e-06 
   98       2.628861829057e+03       7.397904602170e-01       3.085787909006e-03      -2.163510428879e+01       1.101287710748e-07       4.023654387155e-04      -2.099542597953e-06 
   99       2.659558079875e+03       7.547820200006e-01       3.149752330066e-03      -2.229074631321e+01       1.094455058569e-07       3.978562810404e-04      -2.070023572488e-06 
  100       2.690463616616e+03       7.696520688213e-01       3.214428255550e-03      -2.294770160618e+01       1.087729224495e-07       3.934521137799e-04      -2.041526497712e-06 
  101       2.721574065847e+03       7.843852143881e-01       3.279822986298e-03      -2.360547996085e+01       1.081091725699e-07       3.891481965041e-04      -2.014876184315e-06 
  102       2.752883689555e+03       7.989658117039e-01       3.345944227679e-03      -2.426358411449e+01       1.074506624004e-07       3.849358603967e-04      -1.990973506174e-06 
  103       2.784385334377e+03       8.133779647268e-01       3.412800098482e-03      -2.492150991904e+01       1.067918634534e-07       3.808022307008e-04      -1.970798616710e-06 
  104       2.816071931786e+03       8.276060603027e-01       3.480398417089e-03      -2.557874709499e+01       1.061273607682e-07       3.767348896610e-04      -1.955196899901e-06 
  105       2.847941338786e+03       8.416364485307e-01       3.548744431048e-03      -2.623478124129e+01       1.054590823148e-07       3.727375739607e-04      -1.944179942585e-06 
  106       2.879992059526e+03       8.554559935434e-01       3.617842795934e-03      -2.688909241625e+01       1.047906329270e-07       3.688171185442e-04      -1.937489445660e-06 
  107       2.912221719421e+03       8.690515689240e-01       3.687698271595e-03      -2.754115475347e+01       1.041251431515e-07       3.649786512481e-04      -1.934798445734e-06 
