# total lensed [l(l+1)/2pi] C_l's (units: [microK]^2)
# for l=2 to 2500, i.e. number of multipoles equal to 2499
#
# -> if you don't want to see such a header, set 'headers' to 'no' in input file
# -> for CMB lensing (d), these are C_l^dd for the deflection field.
#    Remember the conversion factors:
#    C_l^dd (deflection) = l(l+1) C_l^phi-phi
#    C_l^gg (shear/convergence) = 1/4 (l(l+1))^2 C_l^phi-phi
#
# 1:l     2:TT                     3:EE                     4:BB                     5:TE                     6:dd                     7:dT                     8:dE                 
    2       1.111622074348e+03       5.454100729438e-02       1.828649911962e-06       3.537630005607e+00       5.244747449697e-08       3.354840844372e-03      -1.672623092014e-05 
    3       1.041790781691e+03       9.139230102549e-02       3.659000519231e-06       4.490831949359e+00       6.534916784124e-08       3.343818870425e-03      -2.074016477966e-05 
    4       9.758484599971e+02       1.055223088985e-01       6.102054579190e-06       4.645431029701e+00       7.599578556718e-08       3.257039587556e-03      -2.126215617252e-05 
    5       9.249188433118e+02       9.641931438767e-02       9.159917899203e-06       4.334426277679e+00       8.518855525059e-08       3.145187556342e-03      -1.920708258141e-05 
    6       8.881290937004e+02       7.341766917856e-02       1.283508886065e-05       3.792137575147e+00       9.316735902947e-08       3.025057581438e-03      -1.538782464237e-05 
    7       8.629762519156e+02       4.799018521849e-02       1.713037702243e-05       3.176342481835e+00       1.002277744767e-07       2.903740288382e-03      -1.065235462867e-05 
    8       8.462805145406e+02       2.805459131658e-02       2.204881288382e-05       2.582294131360e+00       1.065734987144e-07       2.784058563653e-03      -5.790642170824e-06 
    9       8.365058872372e+02       1.624993350691e-02       2.759355235401e-05       2.064735286824e+00       1.122803012348e-07       2.668298518437e-03      -1.462037546819e-06 
   10       8.320538227992e+02       1.115809410591e-02       3.376777967216e-05       1.652313231394e+00       1.173875288526e-07       2.558584843611e-03       1.866395769760e-06 
   11       8.314286133734e+02       9.720925333376e-03       4.057461256606e-05       1.356244117382e+00       1.186889794037e-07       2.462152975376e-03       3.925357860544e-06 
   12       8.341917086524e+02       9.295531962784e-03       4.801701332869e-05       1.172228394401e+00       1.226069414768e-07       2.364360729561e-03       4.743806926233e-06 
   13       8.391851684986e+02       8.584202901908e-03       5.609770923380e-05       1.084941753906e+00       1.261192029071e-07       2.272381455099e-03       4.444689004694e-06 
   14       8.458919612286e+02       7.502766523466e-03       6.481912531532e-05       1.073300079943e+00       1.292685053252e-07       2.185076826364e-03       3.305658955722e-06 
   15       8.542862146426e+02       6.523625953059e-03       7.418333201636e-05       1.113289713881e+00       1.320945268548e-07       2.106787888266e-03       1.678814850512e-06 
   16       8.638875903907e+02       6.053797510979e-03       8.419200959369e-05       1.182447975412e+00       1.346307502641e-07       2.035739202354e-03      -8.737520897485e-08 
   17       8.744833576303e+02       6.152171546981e-03       9.484643046741e-05       1.262791048136e+00       1.369051831277e-07       1.967427630828e-03      -1.692482445441e-06 
   18       8.859334958445e+02       6.573348618806e-03       1.061474511915e-04       1.340047752201e+00       1.388882569519e-07       1.901590669132e-03      -2.905040149535e-06 
   19       8.982369562952e+02       7.089844322839e-03       1.180955751245e-04       1.408064599713e+00       1.407621407237e-07       1.839649918836e-03      -3.604273409984e-06 
   20       9.110280476902e+02       7.492918595606e-03       1.306908923894e-04       1.463218309094e+00       1.423775903737e-07       1.778672359974e-03      -3.766407526980e-06 
   21       9.243791833323e+02       7.838246267766e-03       1.439332595020e-04       1.506421263505e+00       1.438287426796e-07       1.720905115433e-03      -3.448555813352e-06 
   22       9.382604873897e+02       8.289549855124e-03       1.578222278081e-04       1.541001828171e+00       1.450887892916e-07       1.668008720473e-03      -2.803574232509e-06 
   23       9.526248813743e+02       8.980288155837e-03       1.723572576757e-04       1.571203165563e+00       1.462330676237e-07       1.619215940466e-03      -1.983094420845e-06 
   24       9.672630894982e+02       1.002200723227e-02       1.875376465706e-04       1.601935385200e+00       1.472095575116e-07       1.570910967809e-03      -1.174008460776e-06 
   25       9.821669352009e+02       1.139934093820e-02       2.033627795202e-04       1.636306610652e+00       1.480769967613e-07       1.522877890945e-03      -5.108483552334e-07 
   26       9.972924540063e+02       1.304661448731e-02       2.198320411091e-04       1.676524245758e+00       1.488124256973e-07       1.475365963958e-03      -1.068794737459e-07 
   27       1.012703934061e+03       1.492391447838e-02       2.369450353304e-04       1.722453643530e+00       1.494450445300e-07       1.430622963572e-03       1.113552539221e-08 
   28       1.028420989983e+03       1.699748434235e-02       2.547015293399e-04       1.772602658739e+00       1.499361068622e-07       1.390728451706e-03      -1.326951837151e-07 
   29       1.044476455294e+03       1.926420523715e-02       2.731017085815e-04       1.824223730231e+00       1.503642573846e-07       1.355574165607e-03      -4.930965015108e-07 
   30       1.060806237806e+03       2.172915633919e-02       2.921460326588e-04       1.873377862120e+00       1.507512668715e-07       1.322766687678e-03      -9.866814740730e-07 
   31       1.077271278108e+03       2.439304168203e-02       3.118352348150e-04       1.915610225371e+00       1.510107805246e-07       1.288789909324e-03      -1.499932457192e-06 
   32       1.093915930900e+03       2.724087480004e-02       3.321704961338e-04       1.948346111996e+00       1.511910133905e-07       1.254144090838e-03      -1.958739562695e-06 
   33       1.110787481334e+03       3.024837260701e-02       3.531533959847e-04       1.969328671879e+00       1.513227032697e-07       1.220540949044e-03      -2.288278184248e-06 
   34       1.127878016388e+03       3.339580048405e-02       3.747858671763e-04       1.976474184612e+00       1.513670549060e-07       1.189350992979e-03      -2.415001408817e-06 
   35       1.145186920956e+03       3.670755681561e-02       3.970700701184e-04       1.969591008266e+00       1.513583676256e-07       1.160621009797e-03      -2.344022380440e-06 
   36       1.162666876505e+03       4.022706192160e-02       4.200085306654e-04       1.949288948331e+00       1.513038753575e-07       1.133380321523e-03      -2.121843636351e-06 
   37       1.180243749415e+03       4.399842549130e-02       4.436040329256e-04       1.916483819056e+00       1.511614505662e-07       1.106263996577e-03      -1.811590883677e-06 
   38       1.197966649915e+03       4.803707905193e-02       4.678590282156e-04       1.872154500862e+00       1.509723474615e-07       1.079487587759e-03      -1.457699220916e-06 
   39       1.215899085325e+03       5.234973451678e-02       4.927760685612e-04       1.817546323978e+00       1.507750087561e-07       1.053634671175e-03      -1.109194501074e-06 
   40       1.234074137406e+03       5.694214501496e-02       5.183579868404e-04       1.754264081228e+00       1.505552040524e-07       1.029112603290e-03      -8.307349819070e-07 
   41       1.252496530252e+03       6.181837077519e-02       5.446076233599e-04       1.683766954010e+00       1.502624337474e-07       1.006126912126e-03      -6.865291977030e-07 
   42       1.271158399441e+03       6.697848285234e-02       5.715268576011e-04       1.605603459200e+00       1.499209694048e-07       9.847089643713e-04      -6.776014113633e-07 
   43       1.290022525669e+03       7.241997640807e-02       5.991172899351e-04       1.518638387193e+00       1.495581193241e-07       9.646217107189e-04      -7.775949429588e-07 
   44       1.309013877015e+03       7.813823667754e-02       6.273805019827e-04       1.421515671011e+00       1.491660052548e-07       9.452889259248e-04      -9.466034319841e-07 
   45       1.328052592985e+03       8.412850615344e-02       6.563177910724e-04       1.312838241343e+00       1.487147468300e-07       9.260073822567e-04      -1.138199577445e-06 
   46       1.347172354780e+03       9.039278262780e-02       6.859292862346e-04       1.191806105568e+00       1.482303686783e-07       9.068342965605e-04      -1.328804981573e-06 
   47       1.366431874340e+03       9.693477031967e-02       7.162145626639e-04       1.057744201596e+00       1.477432357115e-07       8.879987272117e-04      -1.498256049784e-06 
   48       1.385880599076e+03       1.037579618346e-01       7.471728634900e-04       9.099211994901e-01       1.472619000721e-07       8.696530286067e-04      -1.621625278439e-06 
   49       1.405557548433e+03       1.108656334099e-01       7.788030815704e-04       7.475461045236e-01       1.467664785736e-07       8.518568205447e-04      -1.668741456391e-06 
   50       1.425487824120e+03       1.182605404393e-01       8.111037150033e-04       5.699973379070e-01       1.462215885427e-07       8.346098476502e-04      -1.613800779368e-06 
   51       1.445673723277e+03       1.259439176437e-01       8.440727616713e-04       3.775911657313e-01       1.456423390133e-07       8.180076137371e-04      -1.470080157577e-06 
   52       1.466099201995e+03       1.339161992892e-01       8.777077646005e-04       1.710159795423e-01       1.450504355759e-07       8.021188892586e-04      -1.268301025865e-06 
   53       1.486730748091e+03       1.421772767773e-01       9.120058167557e-04      -4.887458695133e-02       1.444534021778e-07       7.869294169281e-04      -1.048600579687e-06 
   54       1.507516108187e+03       1.507264797855e-01       9.469635415960e-04      -2.810541147003e-01       1.438406879342e-07       7.723291038300e-04      -8.614960781559e-07 
   55       1.528403873125e+03       1.595629277730e-01       9.825774649072e-04      -5.245784199419e-01       1.431927168179e-07       7.581669645294e-04      -7.558638890176e-07 
   56       1.549410847901e+03       1.686867299576e-01       1.018845283010e-03      -7.794420846368e-01       1.425240920065e-07       7.444722524088e-04      -7.351768527412e-07 
   57       1.570569188254e+03       1.780980504062e-01       1.055764875543e-03      -1.045921494113e+00       1.418537802635e-07       7.312911587785e-04      -7.869162699667e-07 
   58       1.591906558418e+03       1.877967594541e-01       1.093333937684e-03      -1.324333543900e+00       1.411914180009e-07       7.186186885340e-04      -8.937729132182e-07 
   59       1.613445670867e+03       1.977824292766e-01       1.131549975949e-03      -1.615038326315e+00       1.405349159527e-07       7.063914485748e-04      -1.033165751869e-06 
   60       1.635203826062e+03       2.080543294593e-01       1.170410303991e-03      -1.918441817037e+00       1.398678451279e-07       6.944801304819e-04      -1.176743084479e-06 
   61       1.657193756690e+03       2.186109240518e-01       1.209912604347e-03      -2.234912701342e+00       1.391681798340e-07       6.827398515304e-04      -1.296746546502e-06 
   62       1.679427423053e+03       2.294482408302e-01       1.250056770495e-03      -2.564504958874e+00       1.384461497230e-07       6.711995889034e-04      -1.388847600057e-06 
   63       1.701912256744e+03       2.405611264720e-01       1.290843472697e-03      -2.907177494047e+00       1.377180068734e-07       6.599221588189e-04      -1.456030000456e-06 
   64       1.724649520755e+03       2.519436929284e-01       1.332273642024e-03      -3.262874464724e+00       1.369946634710e-07       6.489485212705e-04      -1.502466061533e-06 
   65       1.747633890613e+03       2.635892971767e-01       1.374348484116e-03      -3.631525244507e+00       1.362803703968e-07       6.382946307954e-04      -1.533627381514e-06 
   66       1.770853035514e+03       2.754905209738e-01       1.417069492939e-03      -4.013044385041e+00       1.355712847275e-07       6.279481615552e-04      -1.556399275692e-06 
   67       1.794287199462e+03       2.876391506095e-01       1.460438464542e-03      -4.407331578306e+00       1.348539226138e-07       6.178651067294e-04      -1.579198915916e-06 
   68       1.817917006715e+03       3.000270988707e-01       1.504457435459e-03      -4.814273952928e+00       1.341118467220e-07       6.079932873596e-04      -1.610144050537e-06 
   69       1.841749650996e+03       3.126494331267e-01       1.549128452683e-03      -5.233753587692e+00       1.333529259263e-07       5.983594174120e-04      -1.650624795633e-06 
   70       1.865797284821e+03       3.255019272606e-01       1.594453781581e-03      -5.665641459729e+00       1.325899385791e-07       5.890019881494e-04      -1.700008682521e-06 
   71       1.890069059930e+03       3.385801775280e-01       1.640435988744e-03      -6.109795266801e+00       1.318324702724e-07       5.799447642641e-04      -1.757406375986e-06 
   72       1.914570918759e+03       3.518796064076e-01       1.687077953819e-03      -6.566059449294e+00       1.310861759452e-07       5.711949503301e-04      -1.821649736642e-06 
   73       1.939305385920e+03       3.653954664515e-01       1.734382881335e-03      -7.034265212206e+00       1.303519856356e-07       5.627412921348e-04      -1.891269214613e-06 
   74       1.964271359675e+03       3.791228441368e-01       1.782354312539e-03      -7.514230547136e+00       1.296252522539e-07       5.545521128884e-04      -1.964470574555e-06 
   75       1.989463903412e+03       3.930566637150e-01       1.830996137219e-03      -8.005760254280e+00       1.288948397507e-07       5.465732843118e-04      -2.039110952001e-06 
   76       2.014877758118e+03       4.071904390691e-01       1.880311905435e-03      -8.508622779197e+00       1.281480535217e-07       5.387478600676e-04      -2.113034943208e-06 
   77       2.040519080216e+03       4.215122580012e-01       1.930302591639e-03      -9.022475798062e+00       1.273898332665e-07       5.310860052461e-04      -2.185246082714e-06 
   78       2.066395475277e+03       4.360080692536e-01       1.980968442426e-03      -9.546927039435e+00       1.266286848187e-07       5.236102849845e-04      -2.255009544333e-06 
   79       2.092512336829e+03       4.506628480705e-01       2.032309637990e-03      -1.008155581953e+01       1.258709686363e-07       5.163346792175e-04      -2.321515149097e-06 
   80       2.118872714134e+03       4.654605743751e-01       2.084326289589e-03      -1.062591258877e+01       1.251204696577e-07       5.092636346937e-04      -2.383873428464e-06 
   81       2.145477179968e+03       4.803842109474e-01       2.137018437029e-03      -1.117951847836e+01       1.243779378917e-07       5.023910868155e-04      -2.441111598985e-06 
   82       2.172323698395e+03       4.954156816017e-01       2.190386046129e-03      -1.174186484683e+01       1.236405989839e-07       4.956994513034e-04      -2.492169448433e-06 
   83       2.199407492550e+03       5.105358493638e-01       2.244429006200e-03      -1.231241282660e+01       1.229016340036e-07       4.891585856825e-04      -2.535895133392e-06 
   84       2.226723518744e+03       5.257264644595e-01       2.299147231263e-03      -1.289065160701e+01       1.221534553946e-07       4.827373846125e-04      -2.571245164033e-06 
   85       2.254274649680e+03       5.409764271257e-01       2.354540988527e-03      -1.347628537825e+01       1.214000815663e-07       4.764443128223e-04      -2.597951562333e-06 
   86       2.282064611729e+03       5.562765278577e-01       2.410610619985e-03      -1.406907669148e+01       1.206477967169e-07       4.702949443029e-04      -2.616012000066e-06 
   87       2.310095412100e+03       5.716175810270e-01       2.467356442744e-03      -1.466879100375e+01       1.199014264734e-07       4.642996708508e-04      -2.625505674762e-06 
   88       2.338367250419e+03       5.869904361646e-01       2.524778748237e-03      -1.527519721167e+01       1.191640757474e-07       4.584631814320e-04      -2.626599451955e-06 
   89       2.366878430318e+03       6.023859892452e-01       2.582877801446e-03      -1.588806818518e+01       1.184368504644e-07       4.527839264826e-04      -2.619554162682e-06 
   90       2.395625271010e+03       6.177951939702e-01       2.641653840115e-03      -1.650718130127e+01       1.177185627880e-07       4.472535671463e-04      -2.604731056223e-06 
   91       2.424602018873e+03       6.332090730515e-01       2.701107073972e-03      -1.713231897766e+01       1.170054194604e-07       4.418564094482e-04      -2.582598408073e-06 
   92       2.453800759036e+03       6.486187294949e-01       2.761237683942e-03      -1.776326920661e+01       1.162906928812e-07       4.365688234054e-04      -2.553738283173e-06 
   93       2.483213915395e+03       6.640144692824e-01       2.822046652232e-03      -1.839977423078e+01       1.155674938853e-07       4.313676694151e-04      -2.518821235994e-06 
   94       2.512842372843e+03       6.793829939727e-01       2.883538397083e-03      -1.904136658199e+01       1.148388500385e-07       4.262590950790e-04      -2.478508370150e-06 
   95       2.542688418836e+03       6.947098047652e-01       2.945718534678e-03      -1.968750925476e+01       1.141099812605e-07       4.212551075221e-04      -2.433539990861e-06 
   96       2.572753211616e+03       7.099800525775e-01       3.008593094071e-03      -2.033764519111e+01       1.133853052370e-07       4.163648561013e-04      -2.384771828712e-06 
   97       2.603036727328e+03       7.251785371315e-01       3.072168527811e-03      -2.099119710250e+01       1.126682958408e-07       4.115943636441e-04      -2.333181195545e-06 
   98       2.633537707129e+03       7.402897060391e-01       3.136451722559e-03      -2.164756729163e+01       1.119613335154e-07       4.069462505718e-04      -2.279873267205e-06 
   99       2.664253604304e+03       7.552976538884e-01       3.201450009714e-03      -2.230613747441e+01       1.112655474469e-07       4.024194519076e-04      -2.226087493153e-06 
  100       2.695180531380e+03       7.701861213291e-01       3.267171176037e-03      -2.296626860177e+01       1.105806493521e-07       3.980089271684e-04      -2.173204132940e-06 
  101       2.726313207232e+03       7.849384941587e-01       3.333623474271e-03      -2.362730068159e+01       1.099047587111e-07       3.937053631404e-04      -2.122750919540e-06 
  102       2.757644904207e+03       7.995378024083e-01       3.400815633767e-03      -2.428855260057e+01       1.092342192717e-07       3.894948695403e-04      -2.076409849549e-06 
  103       2.789167395226e+03       8.139667194283e-01       3.468756871104e-03      -2.494932194609e+01       1.085634066534e-07       3.853586675595e-04      -2.036024100246e-06 
  104       2.820872685070e+03       8.282083880850e-01       3.537455967149e-03      -2.560892723894e+01       1.078868119439e-07       3.812789750844e-04      -2.003206073163e-06 
  105       2.852758584477e+03       8.422490284259e-01       3.606918333380e-03      -2.626684151224e+01       1.072063960416e-07       3.772587308892e-04      -1.978055045547e-06 
  106       2.884823793928e+03       8.560756822078e-01       3.677148567223e-03      -2.692257652903e+01       1.065258256812e-07       3.733052607591e-04      -1.960193586131e-06 
  107       2.917066153848e+03       8.696754253181e-01       3.748151350590e-03      -2.757564226726e+01       1.058482851177e-07       3.694242916506e-04      -1.949138100267e-06 
