# Matter power spectrum P(k) at redshift z=0
# for k=1.03225e-05 to 1.07492 h/Mpc,
# number of wavenumbers equal to 603
#    1:k (h/Mpc)              2:P (Mpc/h)^3        
       1.032250900295e-05       5.197241151388e+01 
       2.306801538108e-05       1.133453654806e+02 
       3.585736221897e-05       1.738382318674e+02 
       4.872423871062e-05       2.340159112407e+02 
       6.170287931744e-05       2.942095836520e+02 
       7.482836266540e-05       3.546733315513e+02 
       8.813691980306e-05       4.156282379267e+02 
       1.016662558416e-04       4.772805734691e+02 
       1.154558890291e-04       5.398311973544e+02 
       1.295475113434e-04       6.034813995676e+02 
       1.439853746996e-04       6.684369987288e+02 
       1.588167068167e-04       7.349116402170e+02 
       1.740921606435e-04       8.031296743194e+02 
       1.898663009167e-04       8.733288638335e+02 
       2.061981308627e-04       9.457629434360e+02 
       2.231516611082e-04       1.020704369702e+03 
       2.407965214174e-04       1.098446983496e+03 
       2.592086137104e-04       1.179308847588e+03 
       2.784708017111e-04       1.263635050402e+03 
       2.986736282314e-04       1.351800617545e+03 
       3.199160451801e-04       1.444213369547e+03 
       3.423061335313e-04       1.541316537551e+03 
       3.659617803460e-04       1.643591137405e+03 
       3.910112672467e-04       1.751557693628e+03 
       4.175937094581e-04       1.865777133417e+03 
       4.458592670023e-04       1.986850380608e+03 
       4.759690309117e-04       2.115416172119e+03 
       5.080944694147e-04       2.252146676249e+03 
       5.424163053143e-04       2.397740105851e+03 
       5.791226911247e-04       2.552909948574e+03 
       6.184065593320e-04       2.718370253305e+03 
       6.604620586026e-04       2.894816839131e+03 
       7.054800493347e-04       3.082904418291e+03 
       7.536427268290e-04       3.283220370350e+03 
       8.051175641565e-04       3.496256465182e+03 
       8.600509064993e-04       3.722380353282e+03 
       9.185616804683e-04       3.961809290384e+03 
       9.807357736170e-04       4.214588656569e+03 
       1.046621658337e-03       4.480578065637e+03 
       1.116227758435e-03       4.759446716475e+03 
       1.189521885379e-03       5.050679433634e+03 
       1.266432830678e-03       5.353592217893e+03 
       1.346853939089e-03       5.667346185228e+03 
       1.430648260007e-03       5.990976339638e+03 
       1.517654726710e-03       6.323490418085e+03 
       1.607694766326e-03       6.663818553573e+03 
       1.700578791348e-03       7.010874464372e+03 
       1.796112139015e-03       7.363582330739e+03 
       1.894100172149e-03       7.720898279851e+03 
       1.994352401015e-03       8.081827114283e+03 
       2.096685607992e-03       8.445434207568e+03 
       2.200926044433e-03       8.810852539974e+03 
       2.306910821625e-03       9.177286926828e+03 
       2.414488640519e-03       9.544014226416e+03 
       2.523520006171e-03       9.910381564751e+03 
       2.633877060503e-03       1.027580464637e+04 
       2.745443147760e-03       1.063976274429e+04 
       2.858112205604e-03       1.100179228169e+04 
       2.971788054154e-03       1.136148912406e+04 
       3.086383637000e-03       1.171849290824e+04 
       3.201820253058e-03       1.207249309285e+04 
       3.318026805941e-03       1.242321565005e+04 
       3.434939088227e-03       1.277042480193e+04 
       3.552499111015e-03       1.311391419698e+04 
       3.670654484139e-03       1.345351169765e+04 
       3.789357848884e-03       1.378906235850e+04 
       3.908566362640e-03       1.412043856285e+04 
       4.028241233424e-03       1.444753324370e+04 
       4.148347301246e-03       1.477025149215e+04 
       4.268852662827e-03       1.508852258265e+04 
       4.389728335954e-03       1.540227937947e+04 
       4.510947959800e-03       1.571147658250e+04 
       4.632487527642e-03       1.601607565368e+04 
       4.754325148619e-03       1.631604593915e+04 
       4.876440835450e-03       1.661137196308e+04 
       4.998816315258e-03       1.690203811152e+04 
       5.121434860964e-03       1.718804366808e+04 
       5.244281140910e-03       1.746938820334e+04 
       5.367341084687e-03       1.774607355958e+04 
       5.490601763311e-03       1.801812179970e+04 
       5.614051282118e-03       1.828553868729e+04 
       5.737678684942e-03       1.854834834411e+04 
       5.861473868304e-03       1.880658175390e+04 
       5.985427504463e-03       1.906025912361e+04 
       6.109530972357e-03       1.930940327439e+04 
       6.233776295541e-03       1.955403947280e+04 
       6.358156086347e-03       1.979420172162e+04 
       6.482663495592e-03       2.002989876698e+04 
       6.607292167219e-03       2.026121199901e+04 
       6.732036197332e-03       2.048815623677e+04 
       6.856890097179e-03       2.071076745199e+04 
       6.981848759628e-03       2.092910646566e+04 
       7.106907428805e-03       2.114316670558e+04 
       7.232061672533e-03       2.135299768788e+04 
       7.357307357307e-03       2.155862678185e+04 
       7.482640625534e-03       2.176014635308e+04 
       7.608057874807e-03       2.195755638933e+04 
       7.733555739024e-03       2.215090375243e+04 
       7.859131071154e-03       2.234024341620e+04 
       7.984780927495e-03       2.252561952122e+04 
       8.110502553285e-03       2.270703752521e+04 
       8.236293369527e-03       2.288455285030e+04 
       8.362150960918e-03       2.305822091820e+04 
       8.488073064779e-03       2.322806478459e+04 
       8.614057560898e-03       2.339413410496e+04 
       8.740102462185e-03       2.355644134130e+04 
       8.866205906087e-03       2.371509429689e+04 
       8.992366146685e-03       2.387005417121e+04 
       9.118581547406e-03       2.402141302559e+04 
       9.244850574313e-03       2.416922731153e+04 
       9.371171789903e-03       2.431346871067e+04 
       9.497543847386e-03       2.445419142231e+04 
       9.623965485397e-03       2.459148264569e+04 
       9.750435523102e-03       2.472532232965e+04 
       9.876952855673e-03       2.485580575993e+04 
       1.000351645009e-02       2.498293400837e+04 
       1.013012534128e-02       2.510673589933e+04 
       1.025677862847e-02       2.522731379029e+04 
       1.038347547189e-02       2.534460254484e+04 
       1.051021508965e-02       2.545872535477e+04 
       1.063699675487e-02       2.556969304084e+04 
       1.076381979298e-02       2.567749586822e+04 
       1.089068357928e-02       2.578221119803e+04 
       1.101758753660e-02       2.588391471511e+04 
       1.114453113313e-02       2.598256064553e+04 
       1.127151388048e-02       2.607823743028e+04 
       1.139853533177e-02       2.617093734421e+04 
       1.152559507992e-02       2.626075902187e+04 
       1.165269275603e-02       2.634767111183e+04 
       1.177982802790e-02       2.643171023107e+04 
       1.190700059864e-02       2.651294749256e+04 
       1.203421020533e-02       2.659141193013e+04 
       1.216145661789e-02       2.666715177554e+04 
       1.228873963788e-02       2.674010952647e+04 
       1.241605909751e-02       2.681043699368e+04 
       1.254341485866e-02       2.687805012248e+04 
       1.267080681199e-02       2.694307952208e+04 
       1.279823487609e-02       2.700550130223e+04 
       1.292569899671e-02       2.706539703913e+04 
       1.305319914609e-02       2.712272230426e+04 
       1.318073532222e-02       2.717755350260e+04 
       1.330830754834e-02       2.722992401162e+04 
       1.343591587226e-02       2.727983906062e+04 
       1.356356036594e-02       2.732735569750e+04 
       1.369124112499e-02       2.737252878143e+04 
       1.381895826821e-02       2.741526886459e+04 
       1.394671193724e-02       2.745571382830e+04 
       1.407450229619e-02       2.749387066931e+04 
       1.420232953131e-02       2.752975665235e+04 
       1.433019385071e-02       2.756339611012e+04 
       1.445809548410e-02       2.759487498414e+04 
       1.458603468259e-02       2.762412341877e+04 
       1.471401171845e-02       2.765121543306e+04 
       1.484202688496e-02       2.767618144623e+04 
       1.497008049631e-02       2.769905112540e+04 
       1.509817288739e-02       2.771983178956e+04 
       1.522630441380e-02       2.773860217283e+04 
       1.535447545171e-02       2.775537570948e+04 
       1.548268639782e-02       2.777010337101e+04 
       1.561093766939e-02       2.778291413477e+04 
       1.573922970417e-02       2.779375976421e+04 
       1.586756296047e-02       2.780263131597e+04 
       1.599593791715e-02       2.780970489375e+04 
       1.612435507372e-02       2.781483244097e+04 
       1.625281495040e-02       2.781815887715e+04 
       1.638131808821e-02       2.781964666775e+04 
       1.650986504910e-02       2.781940999293e+04 
       1.663845641606e-02       2.781735155692e+04 
       1.676709279329e-02       2.781355961409e+04 
       1.689577480635e-02       2.780805276492e+04 
       1.702450310236e-02       2.780081971838e+04 
       1.715327835019e-02       2.779197611450e+04 
       1.728210124069e-02       2.778142299204e+04 
       1.741097248692e-02       2.776930419810e+04 
       1.753989282438e-02       2.775554831355e+04 
       1.766886301132e-02       2.774025905505e+04 
       1.779788382900e-02       2.772336073090e+04 
       1.792695608197e-02       2.770497401258e+04 
       1.805608059846e-02       2.768506428850e+04 
       1.818525823062e-02       2.766365025398e+04 
       1.831448985495e-02       2.764081955150e+04 
       1.844377637261e-02       2.761649519091e+04 
       1.857311870987e-02       2.759077736184e+04 
       1.870251781843e-02       2.756372518248e+04 
       1.883197467591e-02       2.753519344055e+04 
       1.896149028625e-02       2.750535560464e+04 
       1.909106568018e-02       2.747418396884e+04 
       1.922070191567e-02       2.744171329729e+04 
       1.935040007846e-02       2.740792838120e+04 
       1.948016128252e-02       2.737288508709e+04 
       1.960998667061e-02       2.733662542319e+04 
       1.973987741481e-02       2.729907577064e+04 
       1.986983471710e-02       2.726037327292e+04 
       1.999985980994e-02       2.722047831648e+04 
       2.012995395686e-02       2.717940636946e+04 
       2.026011845310e-02       2.713713174449e+04 
       2.039035462625e-02       2.709376966063e+04 
       2.052066383695e-02       2.704932412171e+04 
       2.065104747951e-02       2.700373362130e+04 
       2.078150698270e-02       2.695710365289e+04 
       2.091204381043e-02       2.690945884688e+04 
       2.104265946254e-02       2.686073836463e+04 
       2.117335547557e-02       2.681103041771e+04 
       2.130413342359e-02       2.676031011723e+04 
       2.143499491899e-02       2.670859048925e+04 
       2.156594161339e-02       2.665597921015e+04 
       2.169697519850e-02       2.660235900581e+04 
       2.182809740704e-02       2.654787329119e+04 
       2.195931001368e-02       2.649244243431e+04 
       2.209061483605e-02       2.643614647783e+04 
       2.222201373569e-02       2.637900564484e+04 
       2.235350861912e-02       2.632097108777e+04 
       2.248510143890e-02       2.626211888295e+04 
       2.261679419474e-02       2.620241272769e+04 
       2.274858893462e-02       2.614203248548e+04 
       2.288048775599e-02       2.608070014434e+04 
       2.301249280694e-02       2.601869428636e+04 
       2.314460628749e-02       2.595593143318e+04 
       2.327683045083e-02       2.589244805975e+04 
       2.340916760471e-02       2.582814761921e+04 
       2.354162011274e-02       2.576329165929e+04 
       2.367419039587e-02       2.569768244812e+04 
       2.380688093377e-02       2.563133950715e+04 
       2.393969426643e-02       2.556447489501e+04 
       2.407263299563e-02       2.549689588780e+04 
       2.420569978659e-02       2.542867198320e+04 
       2.433889736961e-02       2.535988073878e+04 
       2.447222854180e-02       2.529042439532e+04 
       2.460569616879e-02       2.522047830045e+04 
       2.473930318664e-02       2.514989138179e+04 
       2.487305260364e-02       2.507879660950e+04 
       2.500694750231e-02       2.500717276108e+04 
       2.514099104140e-02       2.493495875778e+04 
       2.527518645795e-02       2.486231461128e+04 
       2.540953706946e-02       2.478910853991e+04 
       2.554404627609e-02       2.471544231767e+04 
       2.567871756300e-02       2.464135902808e+04 
       2.581355450268e-02       2.456676244669e+04 
       2.594856075743e-02       2.449173627136e+04 
       2.608374008189e-02       2.441625287116e+04 
       2.621909632571e-02       2.434035275969e+04 
       2.635463343623e-02       2.426414231974e+04 
       2.649035546133e-02       2.418742074898e+04 
       2.662626655233e-02       2.411034879701e+04 
       2.676237096704e-02       2.403292260217e+04 
       2.689867307289e-02       2.395514730290e+04 
       2.703517735017e-02       2.387697276784e+04 
       2.717188839540e-02       2.379852190292e+04 
       2.730881092484e-02       2.371975021380e+04 
       2.744594977810e-02       2.364068485195e+04 
       2.758330992189e-02       2.356121088435e+04 
       2.772089645394e-02       2.348159343543e+04 
       2.785871460702e-02       2.340159618892e+04 
       2.799676975317e-02       2.332139373091e+04 
       2.813506740804e-02       2.324089052598e+04 
       2.827361323545e-02       2.316014751455e+04 
       2.841241305208e-02       2.307909904451e+04 
       2.855147283234e-02       2.299791589575e+04 
       2.869079871352e-02       2.291649585851e+04 
       2.883039700104e-02       2.283486394002e+04 
       2.897027417395e-02       2.275303519909e+04 
       2.911043689069e-02       2.267095277771e+04 
       2.925089199504e-02       2.258877714841e+04 
       2.939164652233e-02       2.250640264407e+04 
       2.953270770589e-02       2.242387798295e+04 
       2.967408298383e-02       2.234117566765e+04 
       2.981578000604e-02       2.225832518179e+04 
       2.995780664150e-02       2.217533898766e+04 
       3.010017098599e-02       2.209224990651e+04 
       3.024288136996e-02       2.200897603437e+04 
       3.038594636696e-02       2.192561295596e+04 
       3.052937480223e-02       2.184216865043e+04 
       3.067317576186e-02       2.175860776433e+04 
       3.081735860225e-02       2.167493618122e+04 
       3.096193295998e-02       2.159124145768e+04 
       3.110690876228e-02       2.150745540453e+04 
       3.125229623777e-02       2.142350302472e+04 
       3.139810592791e-02       2.133958489007e+04 
       3.154434869885e-02       2.125551302755e+04 
       3.169103575387e-02       2.117142497672e+04 
       3.183817864650e-02       2.108736706419e+04 
       3.198578929414e-02       2.100308148988e+04 
       3.213387999246e-02       2.091894999161e+04 
       3.228246343048e-02       2.083478814791e+04 
       3.243155270634e-02       2.075047666604e+04 
       3.258116134398e-02       2.066615875336e+04 
       3.273130331058e-02       2.058191133206e+04 
       3.288199303489e-02       2.049767138993e+04 
       3.303324542664e-02       2.041327694223e+04 
       3.318507589677e-02       2.032902110670e+04 
       3.333750037891e-02       2.024463302930e+04 
       3.349053535192e-02       2.016038577211e+04 
       3.364419786370e-02       2.007608521803e+04 
       3.379850555622e-02       1.999183511057e+04 
       3.395347669206e-02       1.990749220522e+04 
       3.410913018233e-02       1.982329481991e+04 
       3.426548561623e-02       1.973907919680e+04 
       3.442256329229e-02       1.965493062966e+04 
       3.458038425139e-02       1.957073609979e+04 
       3.473897031176e-02       1.948658810559e+04 
       3.489834410602e-02       1.940253207124e+04 
       3.505852912047e-02       1.931851933761e+04 
       3.521954973671e-02       1.923449096206e+04 
       3.538143127589e-02       1.915049613890e+04 
       3.554420004563e-02       1.906649047291e+04 
       3.570788338996e-02       1.898269647931e+04 
       3.587250974238e-02       1.889878710796e+04 
       3.603810868240e-02       1.881498282381e+04 
       3.620471099570e-02       1.873125460580e+04 
       3.637234873833e-02       1.864745939762e+04 
       3.654105530519e-02       1.856385237182e+04 
       3.671086550311e-02       1.848025187226e+04 
       3.688181562905e-02       1.839666250559e+04 
       3.705394355363e-02       1.831310458774e+04 
       3.722728881066e-02       1.822962519413e+04 
       3.740189269303e-02       1.814622171912e+04 
       3.757779835554e-02       1.806279027463e+04 
       3.775505092536e-02       1.797942942010e+04 
       3.793369762068e-02       1.789614248917e+04 
       3.811378787838e-02       1.781286820125e+04 
       3.829537349148e-02       1.772958966582e+04 
       3.847850875734e-02       1.764636904780e+04 
       3.866325063761e-02       1.756320598367e+04 
       3.884965893094e-02       1.748003276926e+04 
       3.903779645995e-02       1.739688987207e+04 
       3.922772927352e-02       1.731369150178e+04 
       3.941952686628e-02       1.723063295340e+04 
       3.961326241678e-02       1.714756011334e+04 
       3.980901304645e-02       1.706442527819e+04 
       4.000686010140e-02       1.698131541561e+04 
       4.020688945969e-02       1.689819099101e+04 
       4.040919186655e-02       1.681504752706e+04 
       4.061386330098e-02       1.673197009960e+04 
       4.082100537696e-02       1.664869657344e+04 
       4.103072578347e-02       1.656556042028e+04 
       4.124313876764e-02       1.648220159526e+04 
       4.145836566633e-02       1.639887456973e+04 
       4.167653549189e-02       1.631549414186e+04 
       4.189778557877e-02       1.623201785798e+04 
       4.212226229869e-02       1.614843912304e+04 
       4.235012185310e-02       1.606477345656e+04 
       4.258153115303e-02       1.598099909538e+04 
       4.281666879796e-02       1.589710019366e+04 
       4.305572616723e-02       1.581302674661e+04 
       4.329890863949e-02       1.572884913558e+04 
       4.354643695845e-02       1.564444543295e+04 
       4.379854876614e-02       1.555983317963e+04 
       4.405550032827e-02       1.547502661733e+04 
       4.431756848098e-02       1.538997983498e+04 
       4.458505283313e-02       1.530469895498e+04 
       4.485827826461e-02       1.521908258348e+04 
       4.513759776856e-02       1.513320588279e+04 
       4.542339569470e-02       1.504697829397e+04 
       4.571609146180e-02       1.496039423120e+04 
       4.601614382105e-02       1.487336520282e+04 
       4.632405576864e-02       1.478590469996e+04 
       4.664038022628e-02       1.469798263635e+04 
       4.696572663391e-02       1.460956413713e+04 
       4.730076863010e-02       1.452050334955e+04 
       4.764625303517e-02       1.443082918768e+04 
       4.800301040102e-02       1.434045510211e+04 
       4.837196745374e-02       1.424932486690e+04 
       4.875416183321e-02       1.415737683151e+04 
       4.915075963266e-02       1.406448859121e+04 
       4.956307636741e-02       1.397062080025e+04 
       4.999260216169e-02       1.387559448738e+04 
       5.044103214700e-02       1.377932397270e+04 
       5.091030332561e-02       1.368169741809e+04 
       5.140263948313e-02       1.358249906993e+04 
       5.192060615151e-02       1.348154078207e+04 
       5.246717814334e-02       1.337859500311e+04 
       5.304582281178e-02       1.327336142437e+04 
       5.366060293145e-02       1.316553203875e+04 
       5.431630389871e-02       1.305466431331e+04 
       5.501859067755e-02       1.294022031181e+04 
       5.577420024986e-02       1.282158058133e+04 
       5.659117457329e-02       1.269786746752e+04 
       5.747913580971e-02       1.256795288015e+04 
       5.844959718071e-02       1.243045103940e+04 
       5.951628439205e-02       1.228336757579e+04 
       6.069540616915e-02       1.212413742038e+04 
