# dimensionless total lensed [l(l+1)/2pi] C_l's
# for l=2 to 2500, i.e. number of multipoles equal to 2499
#
# -> if you prefer output in CAMB/HealPix/LensPix units/order, set 'format' to 'camb' in input file
# -> if you don't want to see such a header, set 'headers' to 'no' in input file
# -> for CMB lensing (phi), these are C_l^phi-phi for the lensing potential.
#    Remember the conversion factors:
#    C_l^dd (deflection) = l(l+1) C_l^phi-phi
#    C_l^gg (shear/convergence) = 1/4 (l(l+1))^2 C_l^phi-phi
#
# 1:l     2:TT                     3:EE                     4:TE                     5:BB                     6:phiphi                 7:TPhi                   8:Ephi               
    2       1.634340220313e-10       6.600575975079e-15       3.974641137476e-13       1.877854247765e-19       6.354603252974e-09       4.664179561439e-10      -2.242644118986e-12 
    3       1.646233212765e-10       1.113450845096e-14       4.320823212960e-13       3.757090956609e-19       3.798143719857e-09       3.763362963399e-10      -1.929192339710e-12 
    4       1.628975008359e-10       1.255766925672e-14       4.196630810758e-13       6.264847887926e-19       2.602983883073e-09       3.120330723504e-10      -1.470554030422e-12 
    5       1.599669714447e-10       1.097558532450e-14       4.004756327135e-13       9.402851534345e-19       1.927406561419e-09       2.636221210766e-10      -1.008569544538e-12 
    6       1.565228440614e-10       7.899829357102e-15       3.836226613708e-13       1.317316308864e-18       1.498413871228e-09       2.259463277561e-10      -5.971614906980e-13 
    7       1.531187858309e-10       4.924148878937e-15       3.677685098131e-13       1.757811914633e-18       1.205327113247e-09       1.960026659251e-10      -2.633294630493e-13 
    8       1.500272634175e-10       2.928353614994e-15       3.490225410746e-13       2.262026559582e-18       9.942400017359e-10       1.717963070251e-10      -1.739393214627e-14 
    9       1.473604905939e-10       1.987095544692e-15       3.253672655632e-13       2.830228711718e-18       8.360541300758e-10       1.519376521977e-10       1.421886263417e-13 
   10       1.452190112415e-10       1.705265048413e-15       2.974274186407e-13       3.462693485639e-18       7.139128999261e-10       1.354621069901e-10       2.255194483538e-13 
   11       1.435266493141e-10       1.628260085388e-15       2.677624615339e-13       4.159695488854e-18       6.043656849180e-10       1.220925503367e-10       2.481008526089e-13 
   12       1.423120198011e-10       1.491165303866e-15       2.395876682397e-13       4.921502002846e-18       5.282162473765e-10       1.102061542163e-10       2.278667297589e-13 
   13       1.415261287991e-10       1.253581803318e-15       2.156921200731e-13       5.748366739378e-18       4.657645337308e-10       1.001230828575e-10       1.822725319946e-13 
   14       1.410897418429e-10       1.000104111327e-15       1.978280758013e-13       6.640524387956e-18       4.138480675972e-10       9.153475003292e-11       1.266543955769e-13 
   15       1.409182551908e-10       8.215750263054e-16       1.868052814219e-13       7.598186137511e-18       3.701752753477e-10       8.402507030212e-11       7.276101625654e-14 
   16       1.410477160075e-10       7.509508030314e-16       1.825437610802e-13       8.621536315531e-18       3.330501297580e-10       7.738685714125e-11       2.868913311745e-14 
   17       1.413369943129e-10       7.653884354045e-16       1.841376588162e-13       9.710730242784e-18       3.012039616011e-10       7.151733023557e-11      -1.317950425937e-15 
   18       1.418204680508e-10       8.202372284944e-16       1.902247215869e-13       1.086589277276e-17       2.735618122074e-10       6.627653348608e-11      -1.670507595740e-14 
   19       1.425251005132e-10       8.972583221275e-16       1.994457406519e-13       1.208712157649e-17       2.496817046000e-10       6.163059111461e-11      -1.930735559300e-14 
   20       1.433698815827e-10       9.872972358749e-16       2.099946824946e-13       1.337448237422e-17       2.286443792905e-10       5.746582464886e-11      -1.296008265881e-14 
   21       1.443520970379e-10       1.101141772720e-15       2.207764950016e-13       1.472802026295e-17       2.101196899052e-10       5.372336445016e-11      -1.417653704584e-15 
   22       1.454495116952e-10       1.254939814225e-15       2.308104210451e-13       1.614775417568e-17       1.936641029570e-10       5.030667290475e-11       1.097942119880e-14 
   23       1.466607519290e-10       1.447714816495e-15       2.395470225262e-13       1.763369104322e-17       1.790519591196e-10       4.720155124677e-11       2.145997703509e-14 
   24       1.479644273663e-10       1.671437445873e-15       2.466416880263e-13       1.918582020897e-17       1.659464404014e-10       4.438140240061e-11       2.777106510151e-14 
   25       1.493774641478e-10       1.920018038909e-15       2.522911579538e-13       2.080413074715e-17       1.541949404838e-10       4.181578788268e-11       2.924470441764e-14 
   26       1.509035134411e-10       2.188699481848e-15       2.569045571783e-13       2.248860457224e-17       1.435864923169e-10       3.945194782784e-11       2.607406173790e-14 
   27       1.525245889076e-10       2.481756042135e-15       2.607175703005e-13       2.423923208389e-17       1.339947186570e-10       3.728152062514e-11       1.961188784233e-14 
   28       1.542043863308e-10       2.805890266874e-15       2.639206046439e-13       2.605600780870e-17       1.252549602719e-10       3.529380404184e-11       1.175542376249e-14 
   29       1.559513984855e-10       3.162377811818e-15       2.665997967083e-13       2.793895058037e-17       1.173233092644e-10       3.347920345851e-11       3.751195025671e-15 
   30       1.577728975379e-10       3.550413623606e-15       2.688125552400e-13       2.988809095603e-17       1.101154328621e-10       3.180895659745e-11      -3.136975054023e-15 
   31       1.596613676064e-10       3.968989021639e-15       2.705673631775e-13       3.190347163230e-17       1.034853114606e-10       3.024054010862e-11      -7.653094514557e-15 
   32       1.616171062894e-10       4.418673298671e-15       2.716435280904e-13       3.398516547763e-17       9.739932174739e-11       2.876968549615e-11      -9.637966940910e-15 
   33       1.636304606430e-10       4.900475858259e-15       2.716942272397e-13       3.613326776823e-17       9.181499643135e-11       2.739508479635e-11      -9.359313566119e-15 
   34       1.656828321276e-10       5.415562062825e-15       2.703437555850e-13       3.834789333441e-17       8.665487029517e-11       2.610812126940e-11      -7.267761706531e-15 
   35       1.677773429907e-10       5.965869763642e-15       2.673877189144e-13       4.062917516013e-17       8.189299894329e-11       2.490828530522e-11      -4.076916724370e-15 
   36       1.699166903527e-10       6.553728088286e-15       2.626584681547e-13       4.297726891594e-17       7.749165917231e-11       2.379158761931e-11      -7.378366662153e-16 
   37       1.720982090984e-10       7.181291114279e-15       2.560076680149e-13       4.539234634652e-17       7.339413307380e-11       2.274891022144e-11       1.781522868003e-15 
   38       1.743283262871e-10       7.849096799998e-15       2.474313717627e-13       4.787456407169e-17       6.959017534469e-11       2.177704268183e-11       3.236184474271e-15 
   39       1.766114641477e-10       8.557019477125e-15       2.369877336861e-13       5.042408718923e-17       6.606803774523e-11       2.087023332194e-11       3.601707840352e-15 
   40       1.789452616161e-10       9.304630445467e-15       2.247659996440e-13       5.304109932589e-17       6.279454654589e-11       2.001655881913e-11       2.878957956903e-15 
   41       1.813229205321e-10       1.009156616133e-14       2.108603219967e-13       5.572578642231e-17       5.972673656967e-11       1.920212632438e-11       1.151125374588e-15 
   42       1.837428725250e-10       1.091882407754e-14       1.952763128152e-13       5.847827855893e-17       5.685580738143e-11       1.842659329269e-11      -1.228362962050e-15 
   43       1.862010619292e-10       1.178785564887e-14       1.779973191644e-13       6.129869141919e-17       5.417432615710e-11       1.769181187044e-11      -3.758750299874e-15 
   44       1.886876680690e-10       1.270022187832e-14       1.590099099368e-13       6.418714230820e-17       5.166303115509e-11       1.699733650212e-11      -5.835482784988e-15 
   45       1.911918485537e-10       1.365728685136e-14       1.382951724116e-13       6.714373226705e-17       4.929776303495e-11       1.634120163465e-11      -6.904681915410e-15 
   46       1.937188407739e-10       1.465917256724e-14       1.157995213827e-13       7.016848578324e-17       4.707495199589e-11       1.572300924544e-11      -6.995797712282e-15 
   47       1.962771208669e-10       1.570550356428e-14       9.145514703032e-14       7.326139324078e-17       4.499214624919e-11       1.514141992715e-11      -6.337972512741e-15 
   48       1.988734094805e-10       1.679568250828e-14       6.518745436778e-14       7.642242644613e-17       4.304032244678e-11       1.459311058736e-11      -5.216529353548e-15 
   49       2.015124728021e-10       1.792887914718e-14       3.691455309241e-14       7.965153770051e-17       4.120339619418e-11       1.407262841296e-11      -3.976203160202e-15 
   50       2.041970122442e-10       1.910426292471e-14       6.566367764166e-15       8.294865408876e-17       3.946309559381e-11       1.357407841072e-11      -2.951412361493e-15 
   51       2.069277598127e-10       2.032180088261e-14      -2.585073285754e-14       8.631366067087e-17       3.781627701887e-11       1.309706484505e-11      -2.227264291116e-15 
   52       2.097030646917e-10       2.158165724750e-14      -6.030190407071e-14       8.974641112439e-17       3.626146340212e-11       1.264211010477e-11      -1.819262712388e-15 
   53       2.125186166735e-10       2.288396911235e-14      -9.674150893606e-14       9.324673100361e-17       3.479366051980e-11       1.220890374889e-11      -1.740400093783e-15 
   54       2.153672513592e-10       2.422884685754e-14      -1.351127051159e-13       9.681441658675e-17       3.340411988250e-11       1.179624275686e-11      -2.000955406289e-15 
   55       2.182416551450e-10       2.561632656974e-14      -1.753608154927e-13       1.004492559226e-16       3.208302583155e-11       1.140251147010e-11      -2.594984650405e-15 
   56       2.211437133507e-10       2.704621249230e-14      -2.174782761723e-13       1.041511007337e-16       3.082888172471e-11       1.102739791689e-11      -3.456325636443e-15 
   57       2.240771431618e-10       2.851819617359e-14      -2.614701308460e-13       1.079198103564e-16       2.964104016519e-11       1.067049920309e-11      -4.491309673364e-15 
   58       2.270447172695e-10       3.003189962237e-14      -3.073413464852e-13       1.117552308245e-16       2.851686258987e-11       1.033078129707e-11      -5.590406293203e-15 
   59       2.300481820506e-10       3.158687385860e-14      -3.550969372108e-13       1.156571945816e-16       2.745159609031e-11       1.000654030687e-11      -6.627502583362e-15 
   60       2.330881757474e-10       3.318259746422e-14      -4.047420881632e-13       1.196255201932e-16       2.643825023355e-11       9.695363757465e-12      -7.459182518885e-15 
   61       2.361648238073e-10       3.481846505065e-14      -4.562814618144e-13       1.236600502592e-16       2.546954908326e-11       9.394823639175e-12      -7.961957472864e-15 
   62       2.392798661553e-10       3.649375291483e-14      -5.097166547285e-13       1.277607757488e-16       2.454457793592e-11       9.104824938614e-12      -8.155353490440e-15 
   63       2.424348643926e-10       3.820764306759e-14      -5.650483871543e-13       1.319277391898e-16       2.366341672214e-11       8.825717945506e-12      -8.105299172628e-15 
   64       2.456305076326e-10       3.995923090263e-14      -6.222773661975e-13       1.361609998370e-16       2.282514025846e-11       8.557597801267e-12      -7.889086386406e-15 
   65       2.488665521666e-10       4.174752342739e-14      -6.814043837498e-13       1.404606345961e-16       2.202776091273e-11       8.300288994765e-12      -7.595853759174e-15 
   66       2.521417611294e-10       4.357143749392e-14      -7.424304144174e-13       1.448267389479e-16       2.126817126959e-11       8.053329858067e-12      -7.327070173228e-15 
   67       2.554538441653e-10       4.542979802971e-14      -8.053567134503e-13       1.492594278727e-16       2.054208679592e-11       7.815957062198e-12      -7.197018260222e-15 
   68       2.588004467262e-10       4.732134100778e-14      -8.701755148157e-13       1.537588408706e-16       1.984519639159e-11       7.587354566473e-12      -7.304749861680e-15 
   69       2.621824856086e-10       4.924472701010e-14      -9.368397178314e-13       1.583251561400e-16       1.917701291948e-11       7.367493699349e-12      -7.642272943034e-15 
   70       2.656013840025e-10       5.119852724698e-14      -1.005287205948e-12       1.629585809451e-16       1.853770348075e-11       7.156436229687e-12      -8.168544024677e-15 
   71       2.690580487700e-10       5.318121744261e-14      -1.075449563218e-12       1.676593487850e-16       1.792692459461e-11       6.954076390361e-12      -8.836108454363e-15 
   72       2.725528369563e-10       5.519117618716e-14      -1.147251931814e-12       1.724277204219e-16       1.734379575597e-11       6.760132137529e-12      -9.590854284436e-15 
   73       2.760855222999e-10       5.722668328888e-14      -1.220612869556e-12       1.772639849107e-16       1.678687299309e-11       6.574136409910e-12      -1.037176614906e-14 
   74       2.796552617430e-10       5.928591812614e-14      -1.295444207437e-12       1.821684606273e-16       1.625412242522e-11       6.395428388054e-12      -1.111067914145e-14 
   75       2.832605619425e-10       6.136695799948e-14      -1.371650907140e-12       1.871414962983e-16       1.574289382024e-11       6.223144753615e-12      -1.173203269110e-14 
   76       2.868999600369e-10       6.346783802568e-14      -1.449144359203e-12       1.921834314207e-16       1.525058170014e-11       6.056442383763e-12      -1.217007160266e-14 
   77       2.905742832962e-10       6.558674707179e-14      -1.527885392070e-12       1.972944669166e-16       1.477680628887e-11       5.895232639066e-12      -1.242461450480e-14 
   78       2.942847426007e-10       6.772186472262e-14      -1.607848883532e-12       2.024747726521e-16       1.432158407821e-11       5.739565718510e-12      -1.251505513981e-14 
   79       2.980322362020e-10       6.987130252881e-14      -1.689011146845e-12       2.077245261460e-16       1.388466341807e-11       5.589407172915e-12      -1.246392723062e-14 
   80       3.018173308797e-10       7.203310362088e-14      -1.771350063872e-12       2.130439127661e-16       1.346551217292e-11       5.444633909961e-12      -1.229701612622e-14 
   81       3.056402430985e-10       7.420524232325e-14      -1.854845218208e-12       2.184331259258e-16       1.306330537810e-11       5.305030199237e-12      -1.204347044705e-14 
   82       3.095008201647e-10       7.638562376828e-14      -1.939478028319e-12       2.238923672800e-16       1.267691289628e-11       5.170283677274e-12      -1.173591373044e-14 
   83       3.133985213838e-10       7.857208351031e-14      -2.025231880679e-12       2.294218469215e-16       1.230488707376e-11       5.039981352580e-12      -1.141055607601e-14 
   84       3.173327039369e-10       8.076243593267e-14      -2.112081464564e-12       2.350217789994e-16       1.194581652650e-11       4.913716713692e-12      -1.110000555753e-14 
   85       3.213035762383e-10       8.295462953446e-14      -2.199958453354e-12       2.406923673101e-16       1.159948192437e-11       4.791440205722e-12      -1.081008864711e-14 
   86       3.253113688116e-10       8.514661679908e-14      -2.288780351561e-12       2.464338176663e-16       1.126587007091e-11       4.673159800971e-12      -1.053937393814e-14 
   87       3.293560301025e-10       8.733630811783e-14      -2.378460739686e-12       2.522463423800e-16       1.094481871051e-11       4.558832965497e-12      -1.028611983574e-14 
   88       3.334372127571e-10       8.952157222399e-14      -2.468909225868e-12       2.581301603818e-16       1.063601033832e-11       4.448364531425e-12      -1.004826350914e-14 
   89       3.375542599006e-10       9.170023662692e-14      -2.560031397531e-12       2.640854973402e-16       1.033896600998e-11       4.341604569267e-12      -9.823409844101e-15 
   90       3.417061914149e-10       9.387008804612e-14      -2.651728773039e-12       2.701125857809e-16       1.005303915147e-11       4.238346260233e-12      -9.608820395349e-15 
   91       3.458916902175e-10       9.602887284537e-14      -2.743898753341e-12       2.762116652061e-16       9.777409368925e-12       4.138323768548e-12      -9.401402338951e-15 
   92       3.501090885397e-10       9.817429746676e-14      -2.836434573625e-12       2.823829822138e-16       9.511076258434e-12       4.041210113768e-12      -9.197697424745e-15 
   93       3.543567988838e-10       1.003040641622e-13      -2.929232171199e-12       2.886268346556e-16       9.253097842390e-12       3.946700091762e-12      -8.994755544147e-15 
   94       3.586347108436e-10       1.024159833920e-13      -3.022212075740e-12       2.949437114466e-16       9.003360345178e-12       3.854777925044e-12      -8.792929720659e-15 
   95       3.629429799737e-10       1.045078792124e-13      -3.115300737267e-12       3.013341741015e-16       8.761913285474e-12       3.765486120499e-12      -8.593483016239e-15 
   96       3.672815943130e-10       1.065775563906e-13      -3.208423949217e-12       3.077988152836e-16       8.528732371142e-12       3.678843060122e-12      -8.397742452099e-15 
   97       3.716503667670e-10       1.086228013234e-13      -3.301506895037e-12       3.143382595289e-16       8.303716667004e-12       3.594842040772e-12      -8.207100104094e-15 
   98       3.760489274907e-10       1.106413829558e-13      -3.394474194767e-12       3.209531639698e-16       8.086685762592e-12       3.513450313948e-12      -8.023014198099e-15 
   99       3.804767162703e-10       1.126310536997e-13      -3.487249951635e-12       3.276442190589e-16       7.877376939914e-12       3.434608125542e-12      -7.847010205389e-15 
  100       3.849329749061e-10       1.145895503523e-13      -3.579757798638e-12       3.344121492931e-16       7.675442341213e-12       3.358227755613e-12      -7.680681938023e-15 
  101       3.894167395941e-10       1.165145950150e-13      -3.671920945132e-12       3.412577139370e-16       7.480446136728e-12       3.284192558147e-12      -7.525692644225e-15 
  102       3.939268333094e-10       1.184038960118e-13      -3.763662223424e-12       3.481817077468e-16       7.291861692457e-12       3.212356000820e-12      -7.383776103762e-15 
  103       3.984618581874e-10       1.202551488079e-13      -3.854904135354e-12       3.551849616945e-16       7.109068737914e-12       3.142540704766e-12      -7.256737723327e-15 
  104       4.030204423902e-10       1.220660995443e-13      -3.945567718468e-12       3.622682896646e-16       6.931494520504e-12       3.074580765904e-12      -7.145953579077e-15 
  105       4.076020350895e-10       1.238347434373e-13      -4.035568869739e-12       3.694323187860e-16       6.759065084906e-12       3.008457298111e-12      -7.050788114575e-15 
  106       4.122062051724e-10       1.255591550169e-13      -4.124821609776e-12       3.766776374237e-16       6.591809958649e-12       2.944179495038e-12      -6.969963743955e-15 
  107       4.168323915851e-10       1.272374294919e-13      -4.213239252104e-12       3.840048472865e-16       6.429722374357e-12       2.881742504829e-12      -6.902039449218e-15 
