# dimensionless total [l(l+1)/2pi] C_l's
# for l=2 to 3000, i.e. number of multipoles equal to 2999
#
# -> if you prefer output in CAMB/HealPix/LensPix units/order, set 'format' to 'camb' in input file
# -> if you don't want to see such a header, set 'headers' to 'no' in input file
# -> for CMB lensing (phi), these are C_l^phi-phi for the lensing potential.
#    Remember the conversion factors:
#    C_l^dd (deflection) = l(l+1) C_l^phi-phi
#    C_l^gg (shear/convergence) = 1/4 (l(l+1))^2 C_l^phi-phi
#
# 1:l     2:TT                     3:EE                     4:TE                     5:BB                     6:phiphi                 7:TPhi                   8:Ephi               
    2       1.908093101416e-10       7.111567636008e-15       3.450435106597e-13       0.000000000000e+00       5.644580199529e-09       5.514992090857e-10      -2.289827343415e-12 
    3       1.997170355229e-10       1.176642639334e-14       3.814337211881e-13       0.000000000000e+00       3.404776481212e-09       4.531466812130e-10      -1.953536445343e-12 
    4       1.983119926626e-10       1.273586898195e-14       3.960779837162e-13       0.000000000000e+00       2.341373833064e-09       3.758924815287e-10      -1.453135836590e-12 
    5       1.925668510492e-10       1.057195499433e-14       4.035520888178e-13       0.000000000000e+00       1.737452108677e-09       3.163360712121e-10      -9.542303703817e-13 
    6       1.854537118182e-10       7.195328742450e-15       4.012714444403e-13       0.000000000000e+00       1.353073632342e-09       2.698492853172e-10      -5.203662401024e-13 
    7       1.785008346087e-10       4.284614445333e-15       3.867645239263e-13       0.000000000000e+00       1.090573067060e-09       2.330454415761e-10      -1.813568111635e-13 
    8       1.722568085314e-10       2.544454780156e-15       3.603439076462e-13       0.000000000000e+00       9.018290764477e-10       2.034295191089e-10       5.428392064195e-14 
    9       1.669152714704e-10       1.823679107060e-15       3.255562056202e-13       0.000000000000e+00       7.603688793541e-10       1.792331521955e-10       1.926727692487e-13 
   10       1.625192674435e-10       1.613861263633e-15       2.875659068166e-13       0.000000000000e+00       6.508835738874e-10       1.592647492221e-10       2.496547577013e-13 
   11       1.590350335403e-10       1.490004832716e-15       2.516014940520e-13       0.000000000000e+00       5.532194048134e-10       1.431899368846e-10       2.469022803870e-13 
   12       1.562970581630e-10       1.286641522766e-15       2.217156621947e-13       0.000000000000e+00       4.843719614843e-10       1.289317716809e-10       2.051883546660e-13 
   13       1.542159561690e-10       1.040854170913e-15       2.001418589789e-13       0.000000000000e+00       4.278108622893e-10       1.169085155642e-10       1.457877524099e-13 
   14       1.526409450299e-10       8.482983201149e-16       1.873606722004e-13       0.000000000000e+00       3.807123848798e-10       1.066022492958e-10       8.475061042422e-14 
   15       1.515190527353e-10       7.596269045887e-16       1.825710602987e-13       0.000000000000e+00       3.410250072184e-10       9.751219680963e-11       3.298626301332e-14 
   16       1.508164431344e-10       7.604761930585e-16       1.843305594511e-13       0.000000000000e+00       3.072353082701e-10       8.961633447555e-11      -3.037814761467e-15 
   17       1.504811898885e-10       8.070767965203e-16       1.908021515947e-13       0.000000000000e+00       2.782080478988e-10       8.266723157423e-11      -2.184180166256e-14 
   18       1.503651120506e-10       8.667742704690e-16       1.998973635838e-13       0.000000000000e+00       2.529783573983e-10       7.645247122128e-11      -2.563520881113e-14 
   19       1.504978519210e-10       9.415735390447e-16       2.101823947288e-13       0.000000000000e+00       2.311516220542e-10       7.092940820910e-11      -1.828123501906e-14 
   20       1.508796767714e-10       1.044035758012e-15       2.201667712146e-13       0.000000000000e+00       2.118993682354e-10       6.596303047426e-11      -5.454382228269e-15 
   21       1.514972944345e-10       1.184021582509e-15       2.292162876123e-13       0.000000000000e+00       1.949259470380e-10       6.151820960943e-11       8.563642132578e-15 
   22       1.522808080799e-10       1.368145494780e-15       2.369922449487e-13       0.000000000000e+00       1.798305467423e-10       5.751813542987e-11       1.963896856221e-14 
   23       1.532277408629e-10       1.589473662798e-15       2.435329716286e-13       0.000000000000e+00       1.664106549381e-10       5.390240019102e-11       2.584313649312e-14 
   24       1.543211323976e-10       1.836472650376e-15       2.490577908256e-13       0.000000000000e+00       1.543617144365e-10       5.057760853342e-11       2.627822769663e-14 
   25       1.555523176889e-10       2.109276555836e-15       2.538614013171e-13       0.000000000000e+00       1.435465285720e-10       4.753632073299e-11       2.174648843713e-14 
   26       1.568925273838e-10       2.411608988251e-15       2.582672761012e-13       0.000000000000e+00       1.337738528350e-10       4.476788522962e-11       1.399414210112e-14 
   27       1.583417621862e-10       2.745689270359e-15       2.623906763137e-13       0.000000000000e+00       1.249291467701e-10       4.224630478647e-11       5.031861582589e-15 
   28       1.598927416604e-10       3.112840887585e-15       2.662316287860e-13       0.000000000000e+00       1.168624199832e-10       3.992441280175e-11      -2.973487199211e-15 
   29       1.615484831824e-10       3.512436746571e-15       2.695725023823e-13       0.000000000000e+00       1.095345165844e-10       3.779151611158e-11      -9.051133043009e-15 
   30       1.632947403819e-10       3.942690450415e-15       2.720608902703e-13       0.000000000000e+00       1.028691012185e-10       3.582785835695e-11      -1.253607715496e-14 
   31       1.651016751224e-10       4.402108036195e-15       2.732998353288e-13       0.000000000000e+00       9.673306809571e-11       3.399767456606e-11      -1.294364800162e-14 
   32       1.669739611078e-10       4.893513184792e-15       2.730542597691e-13       0.000000000000e+00       9.109620455233e-11       3.229483289889e-11      -1.083066522092e-14 
   33       1.689157360830e-10       5.421594755350e-15       2.711157270642e-13       0.000000000000e+00       8.591993017523e-11       3.071100062894e-11      -7.292405325797e-15 
   34       1.709211493011e-10       5.990906350015e-15       2.672891890940e-13       0.000000000000e+00       8.113335808136e-11       2.922873603315e-11      -3.570220055423e-15 
   35       1.729928966979e-10       6.602301284078e-15       2.615396782642e-13       0.000000000000e+00       7.671294655746e-11       2.784409154415e-11      -3.678343068819e-16 
   36       1.751277604961e-10       7.255232374319e-15       2.538985779113e-13       0.000000000000e+00       7.262419658323e-11       2.655002100113e-11       1.683799870748e-15 
   37       1.773161392214e-10       7.949077056278e-15       2.444174291425e-13       0.000000000000e+00       6.881504949219e-11       2.533427207708e-11       2.034786482695e-15 
   38       1.795615712675e-10       8.684586728026e-15       2.331350851162e-13       0.000000000000e+00       6.527635241103e-11       2.419583794999e-11       8.868170796583e-16 
   39       1.818660363857e-10       9.462895009650e-15       2.201021994294e-13       0.000000000000e+00       6.199753905645e-11       2.313278732506e-11      -1.249411308095e-15 
   40       1.842237198638e-10       1.028512965214e-14       2.053915365019e-13       0.000000000000e+00       5.894822245460e-11       2.213717223020e-11      -3.721519269715e-15 
   41       1.866247632851e-10       1.115232586465e-14       1.890596133214e-13       0.000000000000e+00       5.608892818632e-11       2.119808360868e-11      -5.864037379822e-15 
   42       1.890698820080e-10       1.206513254645e-14       1.710137969812e-13       0.000000000000e+00       5.341166471479e-11       2.031330653058e-11      -7.457381566734e-15 
   43       1.915591781442e-10       1.302401029480e-14       1.511039102554e-13       0.000000000000e+00       5.090964151585e-11       1.948055444329e-11      -8.402289252494e-15 
   44       1.940875432680e-10       1.402930382745e-14       1.291565042436e-13       0.000000000000e+00       4.856508083259e-11       1.869391835127e-11      -8.594604368845e-15 
   45       1.966481417173e-10       1.508119693598e-14       1.050114867530e-13       0.000000000000e+00       4.635565526292e-11       1.794614023620e-11      -7.981513005529e-15 
   46       1.992452266258e-10       1.617957562422e-14       7.864870656303e-14       0.000000000000e+00       4.427816169534e-11       1.723692826436e-11      -6.750238036202e-15 
   47       2.018843437952e-10       1.732411370411e-14       5.009658469535e-14       0.000000000000e+00       4.233043351006e-11       1.656663342272e-11      -5.195800528264e-15 
   48       2.045684613543e-10       1.851430009378e-14       1.939786287255e-14       0.000000000000e+00       4.050419694225e-11       1.593376236770e-11      -3.672885540449e-15 
   49       2.072977207324e-10       1.974943048952e-14      -1.338974307392e-14       0.000000000000e+00       3.878461554425e-11       1.533483462609e-11      -2.599105046271e-15 
   50       2.100706430709e-10       2.102885919145e-14      -4.820653128379e-14       0.000000000000e+00       3.715480945903e-11       1.476555745242e-11      -2.341211111733e-15 
   51       2.128887122507e-10       2.235285448646e-14      -8.503545020020e-14       0.000000000000e+00       3.561191625561e-11       1.422505764904e-11      -2.829753662941e-15 
   52       2.157526054183e-10       2.372196105359e-14      -1.238684488097e-13       0.000000000000e+00       3.415460220093e-11       1.371255158888e-11      -3.845466088636e-15 
   53       2.186606700227e-10       2.513676392474e-14      -1.646938829203e-13       0.000000000000e+00       3.277825229900e-11       1.322604907949e-11      -5.124981117554e-15 
   54       2.216087432804e-10       2.659789239908e-14      -2.074965037058e-13       0.000000000000e+00       3.147474886197e-11       1.276227257143e-11      -6.358585518540e-15 
   55       2.245921348750e-10       2.810576823061e-14      -2.522640308609e-13       0.000000000000e+00       3.023497757886e-11       1.231767451001e-11      -7.262822772160e-15 
   56       2.276125654324e-10       2.965976796904e-14      -2.990088104999e-13       0.000000000000e+00       2.905758203381e-11       1.189197043396e-11      -7.824565640668e-15 
   57       2.306726354900e-10       3.125885938279e-14      -3.477515174797e-13       0.000000000000e+00       2.794199614781e-11       1.148534206133e-11      -8.113643645102e-15 
   58       2.337737191207e-10       3.290183303664e-14      -3.985152819311e-13       0.000000000000e+00       2.688579456823e-11       1.109737886495e-11      -8.213963629733e-15 
   59       2.369158676785e-10       3.458729624276e-14      -4.513259343457e-13       0.000000000000e+00       2.588457750595e-11       1.072704006549e-11      -8.224180616921e-15 
   60       2.400977135459e-10       3.631366701172e-14      -5.062122506646e-13       0.000000000000e+00       2.493185557251e-11       1.037261662465e-11      -8.258368661958e-15 
   61       2.433175550147e-10       3.807938896900e-14      -5.631969380296e-13       0.000000000000e+00       2.402086897793e-11       1.003227501882e-11      -8.419738654664e-15 
   62       2.465771132407e-10       3.988364616068e-14      -6.222666731849e-13       0.000000000000e+00       2.315078282331e-11       9.705917172182e-12      -8.713380361151e-15 
   63       2.498784516124e-10       4.172579868971e-14      -6.833957431799e-13       0.000000000000e+00       2.232168437821e-11       9.393672461664e-12      -9.115035705148e-15 
   64       2.532228114170e-10       4.360517685149e-14      -7.465546635205e-13       0.000000000000e+00       2.153271870742e-11       9.095333615501e-12      -9.596142822778e-15 
   65       2.566105530636e-10       4.552108209596e-14      -8.117101294657e-13       0.000000000000e+00       2.078203488390e-11       8.810337165844e-12      -1.012365171741e-14 
   66       2.600410973062e-10       4.747278798968e-14      -8.788249673233e-13       0.000000000000e+00       2.006673220170e-11       8.537743901335e-12      -1.065983991453e-14 
   67       2.635128664669e-10       4.945954117789e-14      -9.478580857461e-13       0.000000000000e+00       1.938280638893e-11       8.276219319700e-12      -1.116212811655e-14 
   68       2.670241179219e-10       5.148036468975e-14      -1.018762672337e-12       0.000000000000e+00       1.872622797938e-11       8.024409899151e-12      -1.159185890071e-14 
   69       2.705757720586e-10       5.353341942223e-14      -1.091480468000e-12       0.000000000000e+00       1.809655139174e-11       7.782204141246e-12      -1.194311045422e-14 
   70       2.741690543805e-10       5.561651440993e-14      -1.165946239599e-12       0.000000000000e+00       1.749394387950e-11       7.549693106721e-12      -1.221941692007e-14 
   71       2.778046186320e-10       5.772728901475e-14      -1.242089340095e-12       0.000000000000e+00       1.691809369044e-11       7.326787949801e-12      -1.242536601891e-14 
   72       2.814825108420e-10       5.986320883278e-14      -1.319833614959e-12       0.000000000000e+00       1.636818523504e-11       7.113210494030e-12      -1.256664393764e-14 
   73       2.852021333669e-10       6.202156160128e-14      -1.399097308601e-12       0.000000000000e+00       1.584287425486e-11       6.908483808107e-12      -1.265008021821e-14 
   74       2.889622089333e-10       6.419945310558e-14      -1.479792970779e-12       0.000000000000e+00       1.534026299098e-11       6.711922781712e-12      -1.268369264620e-14 
   75       2.927607446815e-10       6.639380308596e-14      -1.561827363026e-12       0.000000000000e+00       1.485787535241e-11       6.522624701341e-12      -1.267673213961e-14 
   76       2.965958099653e-10       6.860164609283e-14      -1.645113038021e-12       0.000000000000e+00       1.439327616399e-11       6.339702868534e-12      -1.263775380973e-14 
   77       3.004681129817e-10       7.082110643777e-14      -1.729605722354e-12       0.000000000000e+00       1.394611416924e-11       6.163057469728e-12      -1.256832482401e-14 
   78       3.043788308592e-10       7.305059441922e-14      -1.815273612341e-12       0.000000000000e+00       1.351640819578e-11       5.992728809528e-12      -1.246824536448e-14 
   79       3.083288186248e-10       7.528851927164e-14      -1.902086449250e-12       0.000000000000e+00       1.310392469020e-11       5.828662370435e-12      -1.233742500738e-14 
   80       3.123185899346e-10       7.753329132560e-14      -1.990015665084e-12       0.000000000000e+00       1.270816609382e-11       5.670704372456e-12      -1.217588713685e-14 
   81       3.163482978033e-10       7.978332416799e-14      -2.079034528361e-12       0.000000000000e+00       1.232835921843e-11       5.518597332719e-12      -1.198377335871e-14 
   82       3.204177153342e-10       8.203703680208e-14      -2.169118289897e-12       0.000000000000e+00       1.196344362211e-11       5.371975625086e-12      -1.176134791420e-14 
   83       3.245262164490e-10       8.429285580768e-14      -2.260244328592e-12       0.000000000000e+00       1.161205998498e-11       5.230361039761e-12      -1.150900209377e-14 
   84       3.286730683786e-10       8.654905836156e-14      -2.352379922702e-12       0.000000000000e+00       1.127288289762e-11       5.093285658568e-12      -1.122804510881e-14 
   85       3.328584070599e-10       8.880326666610e-14      -2.445442915062e-12       0.000000000000e+00       1.094570807715e-11       4.960693612134e-12      -1.092321768112e-14 
   86       3.370823888597e-10       9.105287327844e-14      -2.539334763960e-12       0.000000000000e+00       1.063052491411e-11       4.832598093976e-12      -1.060060518319e-14 
   87       3.413448793676e-10       9.329519229132e-14      -2.633952276582e-12       0.000000000000e+00       1.032718233526e-11       4.708957699871e-12      -1.026690560118e-14 
   88       3.456454393652e-10       9.552745881861e-14      -2.729187546826e-12       0.000000000000e+00       1.003538296779e-11       4.589674127231e-12      -9.929447166471e-15 
   89       3.499833107958e-10       9.774682848082e-14      -2.824927893102e-12       0.000000000000e+00       9.754677303536e-12       4.474589874473e-12      -9.596205987202e-15 
   90       3.543574027335e-10       9.995037689061e-14      -2.921055796145e-12       0.000000000000e+00       9.484457863221e-12       4.363485940387e-12      -9.275823679781e-15 
   91       3.587662773533e-10       1.021350991383e-13      -3.017448836823e-12       0.000000000000e+00       9.223953360681e-12       4.256079523513e-12      -8.977625000435e-15 
   92       3.632081359003e-10       1.042979092775e-13      -3.113979633940e-12       0.000000000000e+00       8.972222867081e-12       4.152021721510e-12      -8.711635476745e-15 
   93       3.676812462152e-10       1.064357962508e-13      -3.210524806284e-12       0.000000000000e+00       8.728380358108e-12       4.050982906451e-12      -8.486256423915e-15 
   94       3.721853293382e-10       1.085463196114e-13      -3.306993535703e-12       0.000000000000e+00       8.492319662854e-12       3.952928536006e-12      -8.300851699959e-15 
   95       3.767203564800e-10       1.106271877541e-13      -3.403303204918e-12       0.000000000000e+00       8.264088264861e-12       3.857880763668e-12      -8.152073408970e-15 
   96       3.812861181850e-10       1.126761097285e-13      -3.499370816913e-12       0.000000000000e+00       8.043663996645e-12       3.765833376545e-12      -8.036090841412e-15 
   97       3.858822163619e-10       1.146907968724e-13      -3.595113056618e-12       0.000000000000e+00       7.830952366347e-12       3.676750698239e-12      -7.948575948954e-15 
   98       3.905080563147e-10       1.166689644447e-13      -3.690446352591e-12       0.000000000000e+00       7.625783884385e-12       3.590566491736e-12      -7.884688819312e-15 
   99       3.951628387730e-10       1.186083332581e-13      -3.785286938699e-12       0.000000000000e+00       7.427911390114e-12       3.507182862290e-12      -7.839063151087e-15 
  100       3.998455519231e-10       1.205066313121e-13      -3.879550915799e-12       0.000000000000e+00       7.237007378477e-12       3.426469160301e-12      -7.805791728605e-15 
  101       4.045549634385e-10       1.223615954264e-13      -3.973154313423e-12       0.000000000000e+00       7.052661326659e-12       3.348260884209e-12      -7.778411896753e-15 
  102       4.092896125103e-10       1.241709728730e-13      -4.066013151456e-12       0.000000000000e+00       6.874377020746e-12       3.272358583370e-12      -7.749891035821e-15 
  103       4.140478018786e-10       1.259325230100e-13      -4.158043501821e-12       0.000000000000e+00       6.701569882372e-12       3.198526760946e-12      -7.712612036337e-15 
  104       4.188278725396e-10       1.276440515810e-13      -4.249159747962e-12       0.000000000000e+00       6.533700072473e-12       3.126550180385e-12      -7.660014920760e-15 
  105       4.236290872979e-10       1.293035153742e-13      -4.339268962687e-12       0.000000000000e+00       6.370698037988e-12       3.056413810424e-12      -7.591805550675e-15 
  106       4.284508522676e-10       1.309089348115e-13      -4.428275882309e-12       0.000000000000e+00       6.212591734043e-12       2.988145255862e-12      -7.509426736524e-15 
  107       4.332924400499e-10       1.324583645120e-13      -4.516084682398e-12       0.000000000000e+00       6.059374813160e-12       2.921759063935e-12      -7.414468552993e-15 
