# dimensionless total [l(l+1)/2pi] C_l's
# for l=2 to 3500, i.e. number of multipoles equal to 3499
#
# -> if you prefer output in CAMB/HealPix/LensPix units/order, set 'format' to 'camb' in input file
# -> if you don't want to see such a header, set 'headers' to 'no' in input file
# -> for CMB lensing (phi), these are C_l^phi-phi for the lensing potential.
#    Remember the conversion factors:
#    C_l^dd (deflection) = l(l+1) C_l^phi-phi
#    C_l^gg (shear/convergence) = 1/4 (l(l+1))^2 C_l^phi-phi
#
# 1:l     2:TT                     3:EE                     4:TE                     5:BB                     6:phiphi                 7:TPhi                   8:Ephi               
    2       5.188450675277e-10       2.552957666459e-15       6.563231033964e-13       0.000000000000e+00       2.351264022512e-08      -2.658791518536e-09      -1.857077749835e-12 
    3       3.809482456281e-10       4.872090819942e-15       6.339520502754e-13       0.000000000000e+00       1.395816126468e-08      -1.748296546841e-09      -1.510349030206e-12 
    4       3.059132566471e-10       7.118530463839e-15       6.029083671796e-13       0.000000000000e+00       9.639083029108e-09      -1.269307082724e-09      -1.275635182787e-12 
    5       2.591819832483e-10       8.580066441335e-15       5.596958316905e-13       0.000000000000e+00       7.161477314210e-09      -9.764396422261e-10      -1.072203224735e-12 
    6       2.274120654409e-10       8.931921195238e-15       5.063749382482e-13       0.000000000000e+00       5.560842118443e-09      -7.803383441644e-10      -8.800881664882e-13 
    7       2.045655750289e-10       8.254856320831e-15       4.488993713466e-13       0.000000000000e+00       4.459654581056e-09      -6.412549674596e-10      -7.016207471863e-13 
    8       1.875461091422e-10       6.876219634421e-15       3.915249405301e-13       0.000000000000e+00       3.669109799716e-09      -5.383480134059e-10      -5.397571265959e-13 
    9       1.745224619408e-10       5.208306698460e-15       3.371616664801e-13       0.000000000000e+00       3.081627001337e-09      -4.597289822786e-10      -3.967568229317e-13 
   10       1.643927395693e-10       3.616548868391e-15       2.876347872683e-13       0.000000000000e+00       2.631931227289e-09      -3.980430212958e-10      -2.739723941783e-13 
   11       1.564153426704e-10       2.342170809882e-15       2.440020799421e-13       0.000000000000e+00       1.991657790616e-09      -3.301367236855e-10      -1.725221352321e-13 
   12       1.500437342403e-10       1.481724470926e-15       2.068943884294e-13       0.000000000000e+00       1.725385110461e-09      -2.905336748268e-10      -9.128474596658e-14 
   13       1.449586791578e-10       1.010035755471e-15       1.765617892227e-13       0.000000000000e+00       1.508908024783e-09      -2.576255998440e-10      -2.900575895818e-14 
   14       1.409139695111e-10       8.265929652632e-16       1.529833503632e-13       0.000000000000e+00       1.330430912162e-09      -2.300786519961e-10       1.527979866604e-14 
   15       1.376564010826e-10       8.060973649351e-16       1.359453318997e-13       0.000000000000e+00       1.181483239894e-09      -2.065664374077e-10       4.398204956820e-14 
   16       1.350555032298e-10       8.388489806050e-16       1.249536908433e-13       0.000000000000e+00       1.055847689817e-09      -1.864213968832e-10       5.894704334688e-14 
   17       1.330219589651e-10       8.536574564530e-16       1.192453526253e-13       0.000000000000e+00       9.488793939878e-10      -1.688797499016e-10       6.297610515260e-14 
   18       1.314122717284e-10       8.218961887656e-16       1.179645780887e-13       0.000000000000e+00       8.566083830084e-10      -1.536150851602e-10       5.851557494628e-14 
   19       1.302073345029e-10       7.532917195162e-16       1.203936248558e-13       0.000000000000e+00       7.775973197419e-10      -1.404198472202e-10       4.779993197709e-14 
   20       1.293227565581e-10       6.726315018001e-16       1.254285376142e-13       0.000000000000e+00       7.083973424780e-10      -1.286871785797e-10       3.376114725187e-14 
   21       1.287275793905e-10       6.050059931508e-16       1.322975091027e-13       0.000000000000e+00       6.477991243367e-10      -1.182678294940e-10       1.827237165410e-14 
   22       1.283527960828e-10       5.750766899954e-16       1.401595014897e-13       0.000000000000e+00       5.943046813317e-10      -1.089959872156e-10       3.050307431772e-15 
   23       1.281901342619e-10       5.866816742619e-16       1.484399535888e-13       0.000000000000e+00       5.470989872130e-10      -1.007656431373e-10      -1.067131781945e-14 
   24       1.282125961494e-10       6.335399556950e-16       1.565912640483e-13       0.000000000000e+00       5.049894763460e-10      -9.338548634924e-11      -2.185186723001e-14 
   25       1.284025770848e-10       7.026187793384e-16       1.643053677461e-13       0.000000000000e+00       4.674290929999e-10      -8.675177951282e-11      -3.002903576053e-14 
   26       1.287223666365e-10       7.773360289222e-16       1.713536262538e-13       0.000000000000e+00       4.336940627509e-10      -8.072777209779e-11      -3.505579486292e-14 
   27       1.291681798670e-10       8.489484238754e-16       1.776629511498e-13       0.000000000000e+00       4.033438273982e-10      -7.526192334248e-11      -3.708135924783e-14 
   28       1.297301805264e-10       9.121781662275e-16       1.832356357970e-13       0.000000000000e+00       3.758172136522e-10      -7.029037499640e-11      -3.647876807834e-14 
   29       1.304071721717e-10       9.707260244049e-16       1.881525026081e-13       0.000000000000e+00       3.509520785814e-10      -6.578493256370e-11      -3.367364706695e-14 
   30       1.311799568658e-10       1.032546493039e-15       1.925538136573e-13       0.000000000000e+00       3.284592639562e-10      -6.168181445107e-11      -2.926982094984e-14 
   31       1.320140947453e-10       1.106476297124e-15       1.966126965268e-13       0.000000000000e+00       3.078523336928e-10      -5.788377155154e-11      -2.400356511552e-14 
   32       1.329124207999e-10       1.197067339764e-15       2.004649335480e-13       0.000000000000e+00       2.890117748080e-10      -5.437961421140e-11      -1.837645848735e-14 
   33       1.338786955043e-10       1.307907392718e-15       2.042567127850e-13       0.000000000000e+00       2.717929758139e-10      -5.116279067721e-11      -1.290282652834e-14 
   34       1.349068362286e-10       1.441836865729e-15       2.081382680456e-13       0.000000000000e+00       2.559407740429e-10      -4.820588179081e-11      -8.121128948033e-15 
   35       1.359965628750e-10       1.597010489214e-15       2.121726621586e-13       0.000000000000e+00       2.413655888590e-10      -4.549006088080e-11      -4.276556007718e-15 
   36       1.371409444902e-10       1.769343594067e-15       2.163947699843e-13       0.000000000000e+00       2.279417956134e-10      -4.298181629882e-11      -1.529244031268e-15 
   37       1.383270967438e-10       1.954622607682e-15       2.208167367430e-13       0.000000000000e+00       2.154844513192e-10      -4.063723226839e-11       3.491041228200e-18 
   38       1.395569139351e-10       2.152514954323e-15       2.253671400967e-13       0.000000000000e+00       2.039565974662e-10      -3.845086760793e-11       3.850477480684e-16 
   39       1.408316862555e-10       2.363832989342e-15       2.299286530151e-13       0.000000000000e+00       1.933175926602e-10      -3.642063868824e-11      -2.270469700792e-16 
   40       1.421456477727e-10       2.589466125872e-15       2.343513486379e-13       0.000000000000e+00       1.834602140663e-10      -3.453347348511e-11      -1.612212726532e-15 
   41       1.434896219065e-10       2.830176299390e-15       2.384681119496e-13       0.000000000000e+00       1.742470974228e-10      -3.277042659654e-11      -3.509726207800e-15 
   42       1.448650795555e-10       3.085893700125e-15       2.421525154003e-13       0.000000000000e+00       1.656482196199e-10      -3.112639415077e-11      -5.707414270796e-15 
   43       1.462734709717e-10       3.356199187179e-15       2.452758581287e-13       0.000000000000e+00       1.576384420091e-10      -2.959515929414e-11      -7.974137390534e-15 
   44       1.477118720128e-10       3.640503658091e-15       2.476899559162e-13       0.000000000000e+00       1.501563273385e-10      -2.816329125712e-11      -1.003216458371e-14 
   45       1.491754306475e-10       3.938257770984e-15       2.492533575757e-13       0.000000000000e+00       1.431255487816e-10      -2.681464203128e-11      -1.161408276546e-14 
   46       1.506665356707e-10       4.249679312869e-15       2.499219439212e-13       0.000000000000e+00       1.365335297257e-10      -2.554677187324e-11      -1.266010254258e-14 
   47       1.521876982616e-10       4.575226369501e-15       2.496835349806e-13       0.000000000000e+00       1.303714198614e-10      -2.435847260155e-11      -1.317519921998e-14 
   48       1.537387017859e-10       4.915399172934e-15       2.485333767142e-13       0.000000000000e+00       1.246104097515e-10      -2.324486506267e-11      -1.317539805794e-14 
   49       1.553163599701e-10       5.270742807681e-15       2.464746096533e-13       0.000000000000e+00       1.192002522507e-10      -2.219712525575e-11      -1.268853657169e-14 
   50       1.569162701739e-10       5.641899935674e-15       2.435209809783e-13       0.000000000000e+00       1.140841607367e-10      -2.120519225043e-11      -1.176309806764e-14 
   51       1.585391952919e-10       6.029779564876e-15       2.397047613763e-13       0.000000000000e+00       1.092517015462e-10      -2.026739386449e-11      -1.049577044893e-14 
   52       1.601859961361e-10       6.435438768757e-15       2.350717871956e-13       0.000000000000e+00       1.046977027751e-10      -1.938296035751e-11      -9.012685617570e-15 
   53       1.618556433107e-10       6.860041611282e-15       2.296799654144e-13       0.000000000000e+00       1.004064411713e-10      -1.854914060976e-11      -7.463117067920e-15 
   54       1.635450692736e-10       7.304864206888e-15       2.235998478528e-13       0.000000000000e+00       9.635093422686e-11      -1.776106856669e-11      -6.020622009094e-15 
   55       1.652506815107e-10       7.771046303457e-15       2.168954989251e-13       0.000000000000e+00       9.250104710700e-11      -1.701324539481e-11      -4.847249239807e-15 
   56       1.669736811712e-10       8.258762172506e-15       2.095602176828e-13       0.000000000000e+00       8.885179356508e-11      -1.630472308562e-11      -3.973134019654e-15 
   57       1.687158065684e-10       8.767852613271e-15       2.015658535249e-13       0.000000000000e+00       8.540082562740e-11      -1.563497463713e-11      -3.388992496114e-15 
   58       1.704777064180e-10       9.298055673074e-15       1.928809242778e-13       0.000000000000e+00       8.213987819272e-11      -1.500232209556e-11      -3.080144900626e-15 
   59       1.722588566175e-10       9.849001831573e-15       1.834704226231e-13       0.000000000000e+00       7.905440456025e-11      -1.440386594955e-11      -3.026218674360e-15 
   60       1.740574770260e-10       1.042020918502e-14       1.732956225260e-13       0.000000000000e+00       7.612321195771e-11      -1.383541452444e-11      -3.200851593972e-15 
   61       1.758715225605e-10       1.101123658368e-14       1.623163506578e-13       0.000000000000e+00       7.332429098981e-11      -1.329263210562e-11      -3.570707771774e-15 
   62       1.777021047156e-10       1.162219410601e-14       1.504988343644e-13       0.000000000000e+00       7.065465756286e-11      -1.277494418667e-11      -4.092939175024e-15 
   63       1.795506938597e-10       1.225333914172e-14       1.378092797787e-13       0.000000000000e+00       6.811433819992e-11      -1.228238749425e-11      -4.716624915687e-15 
   64       1.814180645274e-10       1.290492874159e-14       1.242114491940e-13       0.000000000000e+00       6.570040450897e-11      -1.181443730575e-11      -5.383095732512e-15 
   65       1.833042462865e-10       1.357721981343e-14       1.096665457049e-13       0.000000000000e+00       6.340680523937e-11      -1.136997551299e-11      -6.025615314813e-15 
   66       1.852084746043e-10       1.427046931813e-14       9.413309784694e-14       0.000000000000e+00       6.122419833817e-11      -1.094725868575e-11      -6.569061626260e-15 
   67       1.871291417152e-10       1.498493446560e-14       7.756684423773e-14       0.000000000000e+00       5.913978300661e-11      -1.054388613545e-11      -6.929608228668e-15 
   68       1.890645525636e-10       1.572083661323e-14       5.993069133741e-14       0.000000000000e+00       5.714069674393e-11      -1.015743770368e-11      -7.036173782735e-15 
   69       1.910154803304e-10       1.647824402880e-14       4.122718759690e-14       0.000000000000e+00       5.522538118660e-11      -9.787608583055e-12      -6.900529826678e-15 
   70       1.929830428380e-10       1.725716561519e-14       2.147245242315e-14       0.000000000000e+00       5.339422816777e-11      -9.434451682869e-12      -6.560891465032e-15 
   71       1.949679152584e-10       1.805758438686e-14       6.868249787273e-16       0.000000000000e+00       5.164614310870e-11      -9.097731635437e-12      -6.061639890811e-15 
   72       1.969703015705e-10       1.887945673745e-14      -2.110499355317e-14       0.000000000000e+00       4.997846825132e-11      -8.776909988220e-12      -5.453560440158e-15 
   73       1.989899060166e-10       1.972271170752e-14      -4.387379770386e-14       0.000000000000e+00       4.838690589080e-11      -8.471130395957e-12      -4.794080647008e-15 
   74       2.010259045601e-10       2.058725025216e-14      -6.758573545417e-14       0.000000000000e+00       4.686544160811e-11      -8.179203812791e-12      -4.147508297739e-15 
   75       2.030769163420e-10       2.147294450870e-14      -9.220216596954e-14       0.000000000000e+00       4.540626750256e-11      -7.899593684401e-12      -3.585269485830e-15 
   76       2.051416075271e-10       2.237966626997e-14      -1.176892221154e-13       0.000000000000e+00       4.400171399681e-11      -7.630793939758e-12      -3.170129925608e-15 
   77       2.072206930614e-10       2.330738001742e-14      -1.440488256448e-13       0.000000000000e+00       4.265062164408e-11      -7.372575276811e-12      -2.905010838729e-15 
   78       2.093152497838e-10       2.425606560142e-14      -1.712930955900e-13       0.000000000000e+00       4.135299717809e-11      -7.124940295974e-12      -2.775228530698e-15 
   79       2.114261010972e-10       2.522569040926e-14      -1.994352010490e-13       0.000000000000e+00       4.010807301558e-11      -6.887744218237e-12      -2.763594185639e-15 
   80       2.135538013933e-10       2.621620923180e-14      -2.284894179253e-13       0.000000000000e+00       3.891427167628e-11      -6.660688131964e-12      -2.850323484706e-15 
   81       2.156986204773e-10       2.722756412994e-14      -2.584711856672e-13       0.000000000000e+00       3.776917020285e-11      -6.443312239701e-12      -3.012946224489e-15 
   82       2.178605279923e-10       2.825968430123e-14      -2.893971640073e-13       0.000000000000e+00       3.666946458086e-11      -6.234989104977e-12      -3.226215935432e-15 
   83       2.200391778441e-10       2.931248594635e-14      -3.212852897018e-13       0.000000000000e+00       3.561093415876e-11      -6.034916899109e-12      -3.462019500235e-15 
   84       2.222342009057e-10       3.038585472075e-14      -3.541513193496e-13       0.000000000000e+00       3.458946671650e-11      -5.842306035825e-12      -3.694534770923e-15 
   85       2.244461730004e-10       3.147959003895e-14      -3.879976750522e-13       0.000000000000e+00       3.360440685986e-11      -5.656989417298e-12      -3.916883801991e-15 
   86       2.266757795796e-10       3.259345124948e-14      -4.228228450314e-13       0.000000000000e+00       3.265570006566e-11      -5.478901442700e-12      -4.127087496502e-15 
   87       2.289235114691e-10       3.372717380902e-14      -4.586247308557e-13       0.000000000000e+00       3.174286389482e-11      -5.307890163830e-12      -4.323060922110e-15 
   88       2.311896544756e-10       3.488046885627e-14      -4.954006451221e-13       0.000000000000e+00       3.086497023838e-11      -5.143713782138e-12      -4.502611131134e-15 
   89       2.334742789924e-10       3.605302278584e-14      -5.331473091376e-13       0.000000000000e+00       3.002062756351e-11      -4.986037145740e-12      -4.663434980626e-15 
   90       2.357772296052e-10       3.724449682211e-14      -5.718608506018e-13       0.000000000000e+00       2.920796315945e-11      -4.834428246438e-12      -4.803116952437e-15 
   91       2.380981146976e-10       3.845452659304e-14      -6.115368012884e-13       0.000000000000e+00       2.842460538352e-11      -4.688354716742e-12      -4.919126973288e-15 
   92       2.404362960577e-10       3.968272170408e-14      -6.521700947275e-13       0.000000000000e+00       2.766766590716e-11      -4.547180326888e-12      -5.008818234838e-15 
   93       2.427911884377e-10       4.092868359088e-14      -6.937540529735e-13       0.000000000000e+00       2.693442615806e-11      -4.410316444409e-12      -5.070360056003e-15 
   94       2.451632323491e-10       4.219206307445e-14      -7.362771776263e-13       0.000000000000e+00       2.622455330696e-11      -4.277710079055e-12      -5.105701697270e-15 
   95       2.475530490390e-10       4.347251071470e-14      -7.797258696480e-13       0.000000000000e+00       2.553818629083e-11      -4.149423104747e-12      -5.118052347929e-15 
   96       2.499611375153e-10       4.476965912997e-14      -8.240853812955e-13       0.000000000000e+00       2.487525333377e-11      -4.025482479885e-12      -5.110996314176e-15 
   97       2.523878684065e-10       4.608312282179e-14      -8.693397999261e-13       0.000000000000e+00       2.423546385935e-11      -3.905878871515e-12      -5.088503674352e-15 
   98       2.548334778232e-10       4.741249799970e-14      -9.154720318024e-13       0.000000000000e+00       2.361830040300e-11      -3.790565279492e-12      -5.054940934181e-15 
   99       2.572980612178e-10       4.875736240599e-14      -9.624637858982e-13       0.000000000000e+00       2.302301052439e-11      -3.679455660645e-12      -5.015081682013e-15 
  100       2.597815672455e-10       5.011727514045e-14      -1.010295557703e-12       0.000000000000e+00       2.244859871979e-11      -3.572423552943e-12      -4.974117244064e-15 
  101       2.622837916245e-10       5.149177648518e-14      -1.058946613028e-12       0.000000000000e+00       2.189381833448e-11      -3.469300699657e-12      -4.937667339655e-15 
  102       2.648043709970e-10       5.288038772934e-14      -1.108394971811e-12       0.000000000000e+00       2.135716347511e-11      -3.369875673528e-12      -4.911790736451e-15 
  103       2.673427767893e-10       5.428261099392e-14      -1.158617391923e-12       0.000000000000e+00       2.083686092206e-11      -3.273892500928e-12      -4.902995905704e-15 
  104       2.698985376434e-10       5.569791952163e-14      -1.209591624608e-12       0.000000000000e+00       2.033127374781e-11      -3.181107272471e-12      -4.916691186539e-15 
  105       2.724719541557e-10       5.712572743008e-14      -1.261303562693e-12       0.000000000000e+00       1.984019168656e-11      -3.091469647489e-12      -4.952273892804e-15 
  106       2.750634696924e-10       5.856541552697e-14      -1.313741032300e-12       0.000000000000e+00       1.936370080857e-11      -3.004963417352e-12      -5.007394592278e-15 
  107       2.776734468571e-10       6.001634020354e-14      -1.366891616101e-12       0.000000000000e+00       1.890178385941e-11      -2.921549978796e-12      -5.079451943139e-15 
