# dimensionless total lensed [l(l+1)/2pi] C_l's
# for l=2 to 3000, i.e. number of multipoles equal to 2999
#
# -> if you prefer output in CAMB/HealPix/LensPix units/order, set 'format' to 'camb' in input file
# -> if you don't want to see such a header, set 'headers' to 'no' in input file
# -> for CMB lensing (phi), these are C_l^phi-phi for the lensing potential.
#    Remember the conversion factors:
#    C_l^dd (deflection) = l(l+1) C_l^phi-phi
#    C_l^gg (shear/convergence) = 1/4 (l(l+1))^2 C_l^phi-phi
#
# 1:l     2:TT                     3:EE                     4:TE                     5:BB                     6:phiphi                 7:TPhi                   8:Ephi               
    2       5.188457151223e-10       2.553364802255e-15       6.563230949668e-13       4.071363349484e-19       2.351264022512e-08      -2.658791518536e-09      -1.857077749835e-12 
    3       3.809495491751e-10       4.872905807771e-15       6.339520129062e-13       8.149931605933e-19       1.395816126468e-08      -1.748296546841e-09      -1.510349030206e-12 
    4       3.059154473447e-10       7.119890325669e-15       6.029082605535e-13       1.359888074349e-18       9.639083029108e-09      -1.269307082724e-09      -1.275635182787e-12 
    5       2.591853021966e-10       8.582109037304e-15       5.596955908980e-13       2.042686032896e-18       7.161477314210e-09      -9.764396422261e-10      -1.072203224735e-12 
    6       2.274167650952e-10       8.934785338608e-15       5.063744696911e-13       2.864389642798e-18       5.560842118443e-09      -7.803383441644e-10      -8.800881664882e-13 
    7       2.045719200401e-10       8.258681838132e-15       4.488985498379e-13       3.826092166999e-18       4.459654581056e-09      -6.412549674596e-10      -7.016207471863e-13 
    8       1.875543765255e-10       6.881147367465e-15       3.915236076854e-13       4.928926218842e-18       3.669109799716e-09      -5.383480134059e-10      -5.397571265959e-13 
    9       1.745329405431e-10       5.214478448387e-15       3.371596304215e-13       6.174010535852e-18       3.081627001337e-09      -4.597289822786e-10      -3.967568229317e-13 
   10       1.644057288407e-10       3.624107285368e-15       2.876318235898e-13       7.562397329585e-18       2.631931227289e-09      -3.980430212958e-10      -2.739723941783e-13 
   11       1.564311507726e-10       2.351259235467e-15       2.439979338182e-13       9.095022700272e-18       1.991657790616e-09      -3.301367236855e-10      -1.725221352321e-13 
   12       1.500626755600e-10       1.492486743030e-15       2.068887776792e-13       1.077266248556e-17       1.725385110461e-09      -2.905336748268e-10      -9.128474596658e-14 
   13       1.449810713166e-10       1.022615988369e-15       1.765544080904e-13       1.259589568590e-17       1.508908024783e-09      -2.576255998440e-10      -2.900575895818e-14 
   14       1.409401299912e-10       8.411353188527e-16       1.529738737271e-13       1.456507728454e-17       1.330430912162e-09      -2.300786519961e-10       1.527979866604e-14 
   15       1.376866436041e-10       8.227458184791e-16       1.359334195926e-13       1.668032187112e-17       1.181483239894e-09      -2.065664374077e-10       4.398204956820e-14 
   16       1.350901340304e-10       8.577471263233e-16       1.249389917519e-13       1.894149900194e-17       1.055847689817e-09      -1.864213968832e-10       5.894704334688e-14 
   17       1.330612731399e-10       8.749483275989e-16       1.192275082368e-13       2.134824070763e-17       9.488793939878e-10      -1.688797499016e-10       6.297610515260e-14 
   18       1.314565497067e-10       8.457221270448e-16       1.179432253489e-13       2.389995477845e-17       8.566083830084e-10      -1.536150851602e-10       5.851557494628e-14 
   19       1.302568392930e-10       7.797943414789e-16       1.203683969976e-13       2.659588678168e-17       7.775973197419e-10      -1.404198472202e-10       4.779993197709e-14 
   20       1.293777306303e-10       7.019516436817e-16       1.253990655242e-13       2.943509339391e-17       7.083973424780e-10      -1.286871785797e-10       3.376114725187e-14 
   21       1.287882433340e-10       6.372838343751e-16       1.322634187065e-13       3.241658064956e-17       6.477991243367e-10      -1.182678294940e-10       1.827237165410e-14 
   22       1.284193467992e-10       6.104518444064e-16       1.401204119073e-13       3.553926925131e-17       5.943046813317e-10      -1.089959872156e-10       3.050307431772e-15 
   23       1.282627451443e-10       6.252934385736e-16       1.483954713704e-13       3.880214491567e-17       5.470989872130e-10      -1.007656431373e-10      -1.067131781945e-14 
   24       1.282914168000e-10       6.755275271522e-16       1.565409781733e-13       4.220422383529e-17       5.049894763460e-10      -9.338548634924e-11      -2.185186723001e-14 
   25       1.284877352111e-10       7.481215898811e-16       1.642488410681e-13       4.574471137936e-17       4.674290929999e-10      -8.675177951282e-11      -3.002903576053e-14 
   26       1.288139693843e-10       8.264940577050e-16       1.712903876885e-13       4.942296167304e-17       4.336940627509e-10      -8.072777209779e-11      -3.505579486292e-14 
   27       1.292663169913e-10       9.019025642872e-16       1.775924854559e-13       5.323860638862e-17       4.033438273982e-10      -7.526192334248e-11      -3.708135924783e-14 
   28       1.298349272111e-10       9.690705625889e-16       1.831573740809e-13       5.719152702687e-17       3.758172136522e-10      -7.029037499640e-11      -3.647876807834e-14 
   29       1.305185936164e-10       1.031700295935e-15       1.880658129288e-13       6.128195818874e-17       3.509520785814e-10      -6.578493256370e-11      -3.367364706695e-14 
   30       1.312981121532e-10       1.097748068438e-15       1.924579906236e-13       6.551045277427e-17       3.284592639562e-10      -6.168181445107e-11      -2.926982094984e-14 
   31       1.321390406670e-10       1.176052682984e-15       1.965069520183e-13       6.987786932787e-17       3.078523336928e-10      -5.788377155154e-11      -2.400356511552e-14 
   32       1.330442161436e-10       1.271167962344e-15       2.003483937347e-13       7.438534547903e-17       2.890117748080e-10      -5.437961421140e-11      -1.837645848735e-14 
   33       1.340174057357e-10       1.386683736076e-15       2.041284101835e-13       7.903436262900e-17       2.717929758139e-10      -5.116279067721e-11      -1.290282652834e-14 
   34       1.350525377884e-10       1.525442549057e-15       2.079971350664e-13       8.382670991614e-17       2.559407740429e-10      -4.820588179081e-11      -8.121128948033e-15 
   35       1.361493451398e-10       1.685600700251e-15       2.120175374285e-13       8.876423711018e-17       2.413655888590e-10      -4.549006088080e-11      -4.276556007718e-15 
   36       1.373009138465e-10       1.863074942084e-15       2.162243958868e-13       9.384905343499e-17       2.279417956134e-10      -4.298181629882e-11      -1.529244031268e-15 
   37       1.384943796321e-10       2.053652902671e-15       2.206297598900e-13       9.908344184520e-17       2.154844513192e-10      -4.063723226839e-11       3.491041228200e-18 
   38       1.397316531118e-10       2.257002164796e-15       2.251621340463e-13       1.044692708736e-16       2.039565974662e-10      -3.845086760793e-11       3.850477480684e-16 
   39       1.410140419700e-10       2.473934720905e-15       2.297041263836e-13       1.100084071643e-16       1.933175926602e-10      -3.642063868824e-11      -2.270469700792e-16 
   40       1.423358009680e-10       2.705339288682e-15       2.341057477186e-13       1.157028805487e-16       1.834602140663e-10      -3.453347348511e-11      -1.612212726532e-15 
   41       1.436877745990e-10       2.951976599558e-15       2.381998308528e-13       1.215546551174e-16       1.742470974228e-10      -3.277042659654e-11      -3.509726207800e-15 
   42       1.450714452660e-10       3.213774592839e-15       2.418599308196e-13       1.275648387631e-16       1.656482196199e-10      -3.112639415077e-11      -5.707414270796e-15 
   43       1.464882721375e-10       3.490311151742e-15       2.449573481160e-13       1.337342261494e-16       1.576384420091e-10      -2.959515929414e-11      -7.974137390534e-15 
   44       1.479353400569e-10       3.780993575197e-15       2.473439130385e-13       1.400635011599e-16       1.501563273385e-10      -2.816329125712e-11      -1.003216458371e-14 
   45       1.494078036051e-10       4.085268490871e-15       2.488782047490e-13       1.465530763428e-16       1.431255487816e-10      -2.681464203128e-11      -1.161408276546e-14 
   46       1.509080477188e-10       4.403349946531e-15       2.495161571902e-13       1.532025785938e-16       1.365335297257e-10      -2.554677187324e-11      -1.266010254258e-14 
   47       1.524385748473e-10       4.735692013536e-15       2.492456629002e-13       1.600111919623e-16       1.303714198614e-10      -2.435847260155e-11      -1.317519921998e-14 
   48       1.539991567637e-10       5.082790405944e-15       2.480620590441e-13       1.669777758380e-16       1.246104097515e-10      -2.324486506267e-11      -1.317539805794e-14 
   49       1.555865925550e-10       5.445185164713e-15       2.459685970216e-13       1.741008458704e-16       1.192002522507e-10      -2.219712525575e-11      -1.268853657169e-14 
   50       1.571964617874e-10       5.823513967866e-15       2.429791477971e-13       1.813786386548e-16       1.140841607367e-10      -2.120519225043e-11      -1.176309806764e-14 
   51       1.588295064776e-10       6.218682892898e-15       2.391260941054e-13       1.888093707586e-16       1.092517015462e-10      -2.026739386449e-11      -1.049577044893e-14 
   52       1.604865631061e-10       6.631746645700e-15       2.344553922417e-13       1.963910170227e-16       1.046977027751e-10      -1.938296035751e-11      -9.012685617570e-15 
   53       1.621665742429e-10       7.063866932150e-15       2.290250847553e-13       2.041212181602e-16       1.004064411713e-10      -1.854914060976e-11      -7.463117067920e-15 
   54       1.638664404280e-10       7.516317524719e-15       2.229058752675e-13       2.119972656182e-16       9.635093422686e-11      -1.776106856669e-11      -6.020622009094e-15 
   55       1.655825370821e-10       7.990236410567e-15       2.161619798833e-13       2.200164806959e-16       9.250104710700e-11      -1.701324539481e-11      -4.847249239807e-15 
   56       1.673160458511e-10       8.485798526368e-15       2.087867940718e-13       2.281774968711e-16       8.885179356508e-11      -1.630472308562e-11      -3.973134019654e-15 
   57       1.690686882395e-10       9.002846387610e-15       2.007522508967e-13       2.364792695151e-16       8.540082562740e-11      -1.563497463713e-11      -3.388992496114e-15 
   58       1.708410951816e-10       9.541120318339e-15       1.920269547900e-13       2.449207097621e-16       8.213987819272e-11      -1.500232209556e-11      -3.080144900626e-15 
   59       1.726327237937e-10       1.010025366380e-14       1.825759879259e-13       2.535006847317e-16       7.905440456025e-11      -1.440386594955e-11      -3.026218674360e-15 
   60       1.744417741260e-10       1.067976800307e-14       1.723607165943e-13       2.622180177505e-16       7.612321195771e-11      -1.383541452444e-11      -3.200851593972e-15 
   61       1.762661849832e-10       1.127922585045e-14       1.613410509521e-13       2.710718811939e-16       7.332429098981e-11      -1.329263210562e-11      -3.570707771774e-15 
   62       1.781070709157e-10       1.189873964295e-14       1.494832550383e-13       2.800630775469e-16       7.065465756286e-11      -1.277494418667e-11      -4.092939175024e-15 
   63       1.799659124842e-10       1.253856902520e-14       1.367535541859e-13       2.891930475939e-16       6.811433819992e-11      -1.228238749425e-11      -4.716624915687e-15 
   64       1.818434972274e-10       1.319897364755e-14       1.231157228466e-13       2.984635156011e-16       6.570040450897e-11      -1.181443730575e-11      -5.383095732512e-15 
   65       1.837398706521e-10       1.388021337575e-14       1.085309688092e-13       3.078765019966e-16       6.340680523937e-11      -1.136997551299e-11      -6.025615314813e-15 
   66       1.856542872238e-10       1.458254850056e-14       9.295781741669e-14       3.174343360497e-16       6.122419833817e-11      -1.094725868575e-11      -6.569061626260e-15 
   67       1.875851613557e-10       1.530623994738e-14       7.635199578433e-14       3.271396685503e-16       5.913978300661e-11      -1.054388613545e-11      -6.929608228668e-15 
   68       1.895308211180e-10       1.605151169226e-14       5.867640689721e-14       3.369951808903e-16       5.714069674393e-11      -1.015743770368e-11      -7.036173782735e-15 
   69       1.914920562568e-10       1.681842869817e-14       3.993365755795e-14       3.470026155120e-16       5.522538118660e-11      -9.787608583055e-12      -6.900529826678e-15 
   70       1.934700007992e-10       1.760699450832e-14       2.013994374434e-14       3.571635708781e-16       5.339422816777e-11      -9.434451682869e-12      -6.560891465032e-15 
   71       1.954653480470e-10       1.841718610806e-14      -6.843163802247e-16       3.674797925152e-16       5.164614310870e-11      -9.097731635437e-12      -6.061639890811e-15 
   72       1.974783220969e-10       1.924895316786e-14      -2.251434019592e-14       3.779531779281e-16       4.997846825132e-11      -8.776909988220e-12      -5.453560440158e-15 
   73       1.995086493602e-10       2.010221728643e-14      -4.532083835560e-14       3.885857815148e-16       4.838690589080e-11      -8.471130395957e-12      -4.794080647008e-15 
   74       2.015555300828e-10       2.097687123368e-14      -6.906987251394e-14       3.993798194816e-16       4.686544160811e-11      -8.179203812791e-12      -4.147508297739e-15 
   75       2.036176098651e-10       2.187277819382e-14      -9.372271305655e-14       4.103376747579e-16       4.540626750256e-11      -7.899593684401e-12      -3.585269485830e-15 
   76       2.056935761038e-10       2.278980049322e-14      -1.192453795542e-13       4.214612265218e-16       4.400171399681e-11      -7.630793939758e-12      -3.170129925608e-15 
   77       2.077841358401e-10       2.372789350537e-14      -1.456395851360e-13       4.327496867614e-16       4.265062164408e-11      -7.372575276811e-12      -2.905010838729e-15 
   78       2.098903485151e-10       2.468702757426e-14      -1.729172027108e-13       4.442013762963e-16       4.135299717809e-11      -7.124940295974e-12      -2.775228530698e-15 
   79       2.120130176314e-10       2.566715989879e-14      -2.010911382137e-13       4.558143563782e-16       4.010807301558e-11      -6.887744218237e-12      -2.763594185639e-15 
   80       2.141526750886e-10       2.666823438044e-14      -2.301753868864e-13       4.675864197561e-16       3.891427167628e-11      -6.660688131964e-12      -2.850323484706e-15 
   81       2.163095655167e-10       2.769018147094e-14      -2.601850895593e-13       4.795150817419e-16       3.776917020285e-11      -6.443312239701e-12      -3.012946224489e-15 
   82       2.184836306113e-10       2.873291801988e-14      -2.911365889320e-13       4.915975712760e-16       3.666946458086e-11      -6.234989104977e-12      -3.226215935432e-15 
   83       2.206744934676e-10       2.979634712239e-14      -3.230474858553e-13       5.038308219924e-16       3.561093415876e-11      -6.034916899109e-12      -3.462019500235e-15 
   84       2.228817536490e-10       3.088034328536e-14      -3.559332053297e-13       5.162118058394e-16       3.458946671650e-11      -5.842306035825e-12      -3.694534770923e-15 
   85       2.251059629120e-10       3.198470543428e-14      -3.897959171262e-13       5.287386170583e-16       3.360440685986e-11      -5.656989417298e-12      -3.916883801991e-15 
   86       2.273477832655e-10       3.310919580038e-14      -4.246338730881e-13       5.414095523594e-16       3.265570006566e-11      -5.478901442700e-12      -4.127087496502e-15 
   87       2.296076803299e-10       3.425355351622e-14      -4.604447317635e-13       5.542227812147e-16       3.174286389482e-11      -5.307890163830e-12      -4.323060922110e-15 
   88       2.318859128937e-10       3.541749421655e-14      -4.972255560265e-13       5.671763426805e-16       3.086497023838e-11      -5.143713782138e-12      -4.502611131134e-15 
   89       2.341825224703e-10       3.660070963929e-14      -5.349728106978e-13       5.802681422198e-16       3.002062756351e-11      -4.986037145740e-12      -4.663434980626e-15 
   90       2.364973228549e-10       3.780286722635e-14      -5.736823601662e-13       5.934959485253e-16       2.920796315945e-11      -4.834428246438e-12      -4.803116952437e-15 
   91       2.388298896815e-10       3.902360972460e-14      -6.133494660093e-13       6.068573903422e-16       2.842460538352e-11      -4.688354716742e-12      -4.919126973288e-15 
   92       2.411795499795e-10       4.026255478678e-14      -6.539687846148e-13       6.203499532905e-16       2.766766590716e-11      -4.547180326888e-12      -5.008818234838e-15 
   93       2.435456905630e-10       4.151931127236e-14      -6.955333810872e-13       6.339717797354e-16       2.693442615806e-11      -4.410316444409e-12      -5.070360056003e-15 
   94       2.459287589357e-10       4.279353182161e-14      -7.380316064850e-13       6.477242129109e-16       2.622455330696e-11      -4.277710079055e-12      -5.105701697270e-15 
   95       2.483293943144e-10       4.408486748760e-14      -7.814497443358e-13       6.616096313385e-16       2.553818629083e-11      -4.149423104747e-12      -5.118052347929e-15 
   96       2.507481162245e-10       4.539295157319e-14      -8.257729368336e-13       6.756306876142e-16       2.487525333377e-11      -4.025482479885e-12      -5.110996314176e-15 
   97       2.531853184332e-10       4.671739946112e-14      -8.709851689560e-13       6.897903162546e-16       2.423546385935e-11      -3.905878871515e-12      -5.088503674352e-15 
   98       2.556412628833e-10       4.805780844422e-14      -9.170692525826e-13       7.040917415429e-16       2.361830040300e-11      -3.790565279492e-12      -5.054940934181e-15 
   99       2.581160736265e-10       4.941375755550e-14      -9.640068106123e-13       7.185384853746e-16       2.302301052439e-11      -3.679455660645e-12      -5.015081682013e-15 
  100       2.606097307566e-10       5.078480739834e-14      -1.011778261081e-12       7.331343751040e-16       2.244859871979e-11      -3.572423552943e-12      -4.974117244064e-15 
  101       2.631220643432e-10       5.217049997659e-14      -1.060362801281e-12       7.478835513900e-16       2.189381833448e-11      -3.469300699657e-12      -4.937667339655e-15 
  102       2.656527483651e-10       5.357035852477e-14      -1.109738391874e-12       7.627904760419e-16       2.135716347511e-11      -3.369875673528e-12      -4.911790736451e-15 
  103       2.682012946432e-10       5.498388733817e-14      -1.159881741017e-12       7.778599398656e-16       2.083686092206e-11      -3.273892500928e-12      -4.902995905704e-15 
  104       2.707672654242e-10       5.641055992970e-14      -1.210770518185e-12       7.930960412733e-16       2.033127374781e-11      -3.181107272471e-12      -4.916691186539e-15 
  105       2.733509568998e-10       5.784978204420e-14      -1.262390370470e-12       8.084989480760e-16       1.984019168656e-11      -3.091469647489e-12      -4.952273892804e-15 
  106       2.759527971408e-10       5.930092330801e-14      -1.314728828890e-12       8.240677108474e-16       1.936370080857e-11      -3.004963417352e-12      -5.007394592278e-15 
  107       2.785731320731e-10       6.076332816156e-14      -1.367773171823e-12       8.398012496749e-16       1.890178385941e-11      -2.921549978796e-12      -5.079451943139e-15 
