# Matter power spectrum P(k) at redshift z=0
# for k=1.06166e-05 to 1.75606 h/Mpc,
# number of wavenumbers equal to 608
#    1:k (h/Mpc)              2:P (Mpc/h)^3        
       1.061664011613e-05       4.900729045749e+01 
       2.349727909189e-05       1.052451368017e+02 
       3.642365885548e-05       1.604773798738e+02 
       4.943055854498e-05       2.153345535383e+02 
       6.255333644597e-05       2.701806402185e+02 
       7.582824525665e-05       3.252908441366e+02 
       8.929275748541e-05       3.809017102574e+02 
       1.029859053067e-04       4.372316710638e+02 
       1.169486392337e-04       4.944914867186e+02 
       1.312242100008e-04       5.528905199047e+02 
       1.458585780529e-04       6.126409682091e+02 
       1.609008549794e-04       6.739610586860e+02 
       1.764037810489e-04       7.370776254947e+02 
       1.924242426290e-04       8.022283551556e+02 
       2.090238326106e-04       8.696637828426e+02 
       2.262694558749e-04       9.396491264080e+02 
       2.442339801623e-04       1.012465976442e+03 
       2.629969302206e-04       1.088413829935e+03 
       2.826452195362e-04       1.167811456969e+03 
       3.032739089704e-04       1.250998049847e+03 
       3.249869748428e-04       1.338334085821e+03 
       3.478980600290e-04       1.430201838034e+03 
       3.721311700889e-04       1.527005425302e+03 
       3.978212620653e-04       1.629170297857e+03 
       4.251146564181e-04       1.737142018768e+03 
       4.541691831250e-04       1.851384207792e+03 
       4.851539526589e-04       1.972375468419e+03 
       5.182486239093e-04       2.100605124361e+03 
       5.536420282935e-04       2.236567583901e+03 
       5.915300081772e-04       2.380755096166e+03 
       6.321123457226e-04       2.533648723612e+03 
       6.755887033130e-04       2.695707345907e+03 
       7.221535751867e-04       2.867354593327e+03 
       7.719903635117e-04       3.048963755040e+03 
       8.252648340232e-04       3.240841114233e+03 
       8.821183581921e-04       3.443208213941e+03 
       9.426614806852e-04       3.656184426576e+03 
       1.006968425781e-03       3.879771233100e+03 
       1.075073140942e-03       4.113840063638e+03 
       1.146967353076e-03       4.358125837406e+03 
       1.222600893490e-03       4.612226828375e+03 
       1.301884270768e-03       4.875612643752e+03 
       1.384693195311e-03       5.147623913470e+03 
       1.470874544209e-03       5.427511568974e+03 
       1.560253140668e-03       5.714489890699e+03 
       1.652638718696e-03       6.007705968636e+03 
       1.747832532904e-03       6.306286953592e+03 
       1.845633219014e-03       6.609362080584e+03 
       1.945841673530e-03       6.916081289624e+03 
       2.048264869239e-03       7.225629729754e+03 
       2.152718638155e-03       7.537238805075e+03 
       2.259029529191e-03       7.850193386693e+03 
       2.367035887430e-03       8.163834728443e+03 
       2.476588313404e-03       8.477563875641e+03 
       2.587549653336e-03       8.790838237230e+03 
       2.699794653181e-03       9.103171675049e+03 
       2.813209386595e-03       9.414131382717e+03 
       2.927690543912e-03       9.723332363873e+03 
       3.043144648138e-03       1.003043590748e+04 
       3.159487246073e-03       1.033514385910e+04 
       3.276642108102e-03       1.063719776905e+04 
       3.394540458965e-03       1.093636944771e+04 
       3.513120253243e-03       1.123246408791e+04 
       3.632325503159e-03       1.152531110183e+04 
       3.752105661870e-03       1.181476542059e+04 
       3.872415062436e-03       1.210070081992e+04 
       3.993212410722e-03       1.238301502385e+04 
       4.114460329248e-03       1.266161708644e+04 
       4.236124948357e-03       1.293643056560e+04 
       4.358175540767e-03       1.320739617711e+04 
       4.480584195510e-03       1.347446446596e+04 
       4.603325527400e-03       1.373759659096e+04 
       4.726376418341e-03       1.399676128458e+04 
       4.849715787081e-03       1.425192960552e+04 
       4.973324384294e-03       1.450310385840e+04 
       5.097184610162e-03       1.475027044567e+04 
       5.221280351906e-03       1.499342434710e+04 
       5.345596839012e-03       1.523257005624e+04 
       5.470120514115e-03       1.546771598997e+04 
       5.594838917743e-03       1.569887759249e+04 
       5.719740585347e-03       1.592605385212e+04 
       5.844814955198e-03       1.614928708755e+04 
       5.970052285924e-03       1.636858071656e+04 
       6.095443582582e-03       1.658400017329e+04 
       6.220980530312e-03       1.679550675859e+04 
       6.346655434723e-03       1.700315263814e+04 
       6.472461168258e-03       1.720683777587e+04 
       6.598391121882e-03       1.740682203114e+04 
       6.724439161510e-03       1.760303929526e+04 
       6.850599588662e-03       1.779550848942e+04 
       6.976867104894e-03       1.798425770963e+04 
       7.103236779595e-03       1.816934634220e+04 
       7.229704020805e-03       1.835078305637e+04 
       7.356264548739e-03       1.852860963965e+04 
       7.482914371726e-03       1.870287461913e+04 
       7.609649764337e-03       1.887359189496e+04 
       7.736467247456e-03       1.904079437930e+04 
       7.863363570127e-03       1.920453117599e+04 
       7.990335692976e-03       1.936483232590e+04 
       8.117380773077e-03       1.952172366063e+04 
       8.244496150102e-03       1.967524085332e+04 
       8.371679333650e-03       1.982545223034e+04 
       8.498927991628e-03       1.997235787527e+04 
       8.626239939599e-03       2.011600453139e+04 
       8.753613130998e-03       2.025643515684e+04 
       8.881045648143e-03       2.039364300829e+04 
       9.008535693967e-03       2.052772483953e+04 
       9.136081584399e-03       2.065866512643e+04 
       9.263681741355e-03       2.078655554397e+04 
       9.391334686263e-03       2.091138351472e+04 
       9.519039034099e-03       2.103318271614e+04 
       9.646793487865e-03       2.115199183166e+04 
       9.774596833498e-03       2.126787800096e+04 
       9.902447935152e-03       2.138082904291e+04 
       1.003034573084e-02       2.149088591074e+04 
       1.015828922837e-02       2.159808207867e+04 
       1.028627750165e-02       2.170246808312e+04 
       1.041430968716e-02       2.180408953104e+04 
       1.054238498076e-02       2.190293495350e+04 
       1.067050263471e-02       2.199905540133e+04 
       1.079866195485e-02       2.209244602567e+04 
       1.092686229808e-02       2.218322250703e+04 
       1.105510306992e-02       2.227136800103e+04 
       1.118338372230e-02       2.235692520160e+04 
       1.131170375149e-02       2.243985401062e+04 
       1.144006269616e-02       2.252030833701e+04 
       1.156846013560e-02       2.259817188743e+04 
       1.169689568805e-02       2.267365255052e+04 
       1.182536900917e-02       2.274662886929e+04 
       1.195387979056e-02       2.281714934550e+04 
       1.208242775844e-02       2.288529166467e+04 
       1.221101267241e-02       2.295109393488e+04 
       1.233963432427e-02       2.301452177731e+04 
       1.246829253699e-02       2.307565900278e+04 
       1.259698716362e-02       2.313453036827e+04 
       1.272571808646e-02       2.319107360054e+04 
       1.285448521615e-02       2.324545119508e+04 
       1.298328849086e-02       2.329762250780e+04 
       1.311212787559e-02       2.334760568716e+04 
       1.324100336146e-02       2.339543562008e+04 
       1.336991496508e-02       2.344111915310e+04 
       1.349886272799e-02       2.348477884143e+04 
       1.362784671612e-02       2.352630871625e+04 
       1.375686701927e-02       2.356580697786e+04 
       1.388592375071e-02       2.360327140525e+04 
       1.401501704675e-02       2.363873107117e+04 
       1.414414706637e-02       2.367222494057e+04 
       1.427331399087e-02       2.370379182426e+04 
       1.440251802362e-02       2.373335319244e+04 
       1.453175938971e-02       2.376113536088e+04 
       1.466103833582e-02       2.378698291991e+04 
       1.479035512990e-02       2.381097412203e+04 
       1.491971006108e-02       2.383314789932e+04 
       1.504910343947e-02       2.385350739379e+04 
       1.517853559605e-02       2.387209415988e+04 
       1.530800688256e-02       2.388889910400e+04 
       1.543751767143e-02       2.390398952415e+04 
       1.556706835572e-02       2.391739005050e+04 
       1.569665934911e-02       2.392909415343e+04 
       1.582629108585e-02       2.393914170522e+04 
       1.595596402079e-02       2.394750127173e+04 
       1.608567862945e-02       2.395427233500e+04 
       1.621543540800e-02       2.395941598231e+04 
       1.634523487338e-02       2.396296850105e+04 
       1.647507756338e-02       2.396502012810e+04 
       1.660496403675e-02       2.396548619735e+04 
       1.673489487330e-02       2.396445232541e+04 
       1.686487067409e-02       2.396192936528e+04 
       1.699489206156e-02       2.395791605574e+04 
       1.712495967972e-02       2.395242395336e+04 
       1.725507419434e-02       2.394553595084e+04 
       1.738523629318e-02       2.393721432091e+04 
       1.751544668620e-02       2.392748230648e+04 
       1.764570610582e-02       2.391645346241e+04 
       1.777601530718e-02       2.390404109890e+04 
       1.790637506842e-02       2.389026903761e+04 
       1.803678619099e-02       2.387516748216e+04 
       1.816724949995e-02       2.385878694648e+04 
       1.829776584428e-02       2.384116345886e+04 
       1.842833609728e-02       2.382227956278e+04 
       1.855896115689e-02       2.380212347688e+04 
       1.868964194610e-02       2.378075976841e+04 
       1.882037941331e-02       2.375822662936e+04 
       1.895117453278e-02       2.373446952933e+04 
       1.908202830507e-02       2.370958458954e+04 
       1.921294175744e-02       2.368354357991e+04 
       1.934391594437e-02       2.365633769991e+04 
       1.947495194802e-02       2.362811605289e+04 
       1.960605087872e-02       2.359873181060e+04 
       1.973721387555e-02       2.356827393358e+04 
       1.986844210681e-02       2.353681990874e+04 
       1.999973677063e-02       2.350425739948e+04 
       2.013109909553e-02       2.347071700974e+04 
       2.026253034102e-02       2.343613344603e+04 
       2.039403179824e-02       2.340058896069e+04 
       2.052560479058e-02       2.336410271215e+04 
       2.065725067435e-02       2.332665079581e+04 
       2.078897083947e-02       2.328824286991e+04 
       2.092076671017e-02       2.324893300484e+04 
       2.105263974574e-02       2.320873135538e+04 
       2.118459144126e-02       2.316761097123e+04 
       2.131662332837e-02       2.312562584021e+04 
       2.144873697612e-02       2.308279883312e+04 
       2.158093399175e-02       2.303908993783e+04 
       2.171321602157e-02       2.299460013686e+04 
       2.184558475185e-02       2.294928947362e+04 
       2.197804190967e-02       2.290320228702e+04 
       2.211058926396e-02       2.285635475731e+04 
       2.224322862638e-02       2.280869471147e+04 
       2.237596185234e-02       2.276029852021e+04 
       2.250879084204e-02       2.271115845400e+04 
       2.264171754156e-02       2.266138105891e+04 
       2.277474394387e-02       2.261087081216e+04 
       2.290787209004e-02       2.255959051671e+04 
       2.304110407037e-02       2.250769744862e+04 
       2.317444202558e-02       2.245508334843e+04 
       2.330788814808e-02       2.240190662826e+04 
       2.344144468322e-02       2.234808356904e+04 
       2.357511393060e-02       2.229363130841e+04 
       2.370889824545e-02       2.223856681994e+04 
       2.384280004005e-02       2.218288991985e+04 
       2.397682178512e-02       2.212668238276e+04 
       2.411096601136e-02       2.206985307858e+04 
       2.424523531098e-02       2.201251107966e+04 
       2.437963233927e-02       2.195461766381e+04 
       2.451415981626e-02       2.189616134915e+04 
       2.464882052844e-02       2.183726964232e+04 
       2.478361733045e-02       2.177779010085e+04 
       2.491855314694e-02       2.171787595772e+04 
       2.505363097441e-02       2.165747140427e+04 
       2.518885388315e-02       2.159658424977e+04 
       2.532422501924e-02       2.153529759069e+04 
       2.545974760658e-02       2.147355487469e+04 
       2.559542494905e-02       2.141138335114e+04 
       2.573126043271e-02       2.134869353163e+04 
       2.586725752806e-02       2.128573739469e+04 
       2.600341979238e-02       2.122231311879e+04 
       2.613975087222e-02       2.115849431693e+04 
       2.627625450586e-02       2.109435679838e+04 
       2.641293452593e-02       2.102976729748e+04 
       2.654979486214e-02       2.096491550185e+04 
       2.668683954403e-02       2.089966322823e+04 
       2.682407270390e-02       2.083411461190e+04 
       2.696149857977e-02       2.076824982908e+04 
       2.709912151850e-02       2.070203313000e+04 
       2.723694597900e-02       2.063552644736e+04 
       2.737497653557e-02       2.056874580315e+04 
       2.751321788135e-02       2.050167587183e+04 
       2.765167483190e-02       2.043438993484e+04 
       2.779035232891e-02       2.036678562620e+04 
       2.792925544404e-02       2.029889600653e+04 
       2.806838938298e-02       2.023078081087e+04 
       2.820775948951e-02       2.016249861382e+04 
       2.834737124991e-02       2.009394416007e+04 
       2.848723029733e-02       2.002518748681e+04 
       2.862734241655e-02       1.995614315238e+04 
       2.876771354871e-02       1.988695167755e+04 
       2.890834979642e-02       1.981756299334e+04 
       2.904925742893e-02       1.974806612554e+04 
       2.919044288757e-02       1.967830233890e+04 
       2.933191279142e-02       1.960835145713e+04 
       2.947367394320e-02       1.953829536166e+04 
       2.961573333534e-02       1.946806448220e+04 
       2.975809815644e-02       1.939773282089e+04 
       2.990077579784e-02       1.932720582966e+04 
       3.004377386060e-02       1.925655485028e+04 
       3.018710016267e-02       1.918579808156e+04 
       3.033076274647e-02       1.911492600492e+04 
       3.047476988669e-02       1.904395526734e+04 
       3.061913009854e-02       1.897282932867e+04 
       3.076385214626e-02       1.890163834620e+04 
       3.090894505207e-02       1.883035912025e+04 
       3.105441810554e-02       1.875901633158e+04 
       3.120028087327e-02       1.868751658874e+04 
       3.134654320917e-02       1.861602142835e+04 
       3.149321526509e-02       1.854440152816e+04 
       3.164030750200e-02       1.847279184104e+04 
       3.178783070166e-02       1.840106280399e+04 
       3.193579597888e-02       1.832936783438e+04 
       3.208421479436e-02       1.825749987957e+04 
       3.223309896808e-02       1.818566672421e+04 
       3.238246069346e-02       1.811378629564e+04 
       3.253231255213e-02       1.804182641540e+04 
       3.268266752943e-02       1.796986109874e+04 
       3.283353903076e-02       1.789794469664e+04 
       3.298494089865e-02       1.782595019952e+04 
       3.313688743084e-02       1.775397335703e+04 
       3.328939339914e-02       1.768194143198e+04 
       3.344247406940e-02       1.760986878472e+04 
       3.359614522247e-02       1.753785677293e+04 
       3.375042317628e-02       1.746585988670e+04 
       3.390532480916e-02       1.739378762821e+04 
       3.406086758433e-02       1.732179285889e+04 
       3.421706957585e-02       1.724979186417e+04 
       3.437394949593e-02       1.717776168375e+04 
       3.453152672382e-02       1.710579676836e+04 
       3.468982133634e-02       1.703380391281e+04 
       3.484885414012e-02       1.696186481235e+04 
       3.500864670580e-02       1.688990077148e+04 
       3.516922140415e-02       1.681803325632e+04 
       3.533060144441e-02       1.674619205709e+04 
       3.549281091490e-02       1.667423974097e+04 
       3.565587482612e-02       1.660246441339e+04 
       3.581981915651e-02       1.653062840902e+04 
       3.598467090106e-02       1.645888971190e+04 
       3.615045812298e-02       1.638711343673e+04 
       3.631721000871e-02       1.631540144627e+04 
       3.648495692644e-02       1.624375037608e+04 
       3.665373048854e-02       1.617209903175e+04 
       3.682356361806e-02       1.610049656268e+04 
       3.699449061979e-02       1.602892038101e+04 
       3.716654725605e-02       1.595737158854e+04 
       3.733977082786e-02       1.588587295818e+04 
       3.751420026168e-02       1.581442185724e+04 
       3.768987620237e-02       1.574295483321e+04 
       3.786684111279e-02       1.567151315715e+04 
       3.804513938075e-02       1.560015227200e+04 
       3.822481743377e-02       1.552876376522e+04 
       3.840592386255e-02       1.545744981796e+04 
       3.858850955379e-02       1.538612522834e+04 
       3.877262783331e-02       1.531479227003e+04 
       3.895833462035e-02       1.524357031175e+04 
       3.914568859424e-02       1.517229255342e+04 
       3.933475137446e-02       1.510101486148e+04 
       3.952558771556e-02       1.502979047812e+04 
       3.971826571831e-02       1.495853360933e+04 
       3.991285705872e-02       1.488729663026e+04 
       4.010943723688e-02       1.481601514855e+04 
       4.030808584752e-02       1.474476064024e+04 
       4.050888687465e-02       1.467349678259e+04 
       4.071192901298e-02       1.460216154484e+04 
       4.091730601885e-02       1.453087789536e+04 
       4.112511709414e-02       1.445949597081e+04 
       4.133546730675e-02       1.438809361523e+04 
       4.154846805203e-02       1.431664044721e+04 
       4.176423755975e-02       1.424509780773e+04 
       4.198290145231e-02       1.417352320379e+04 
       4.220459336021e-02       1.410185252524e+04 
       4.242945560202e-02       1.403015116729e+04 
       4.265763993696e-02       1.395829578577e+04 
       4.288930839950e-02       1.388638651477e+04 
       4.312463422667e-02       1.381430191127e+04 
       4.336380289071e-02       1.374212275032e+04 
       4.360701325131e-02       1.366976995524e+04 
       4.385447884430e-02       1.359730417351e+04 
       4.410642932622e-02       1.352461181783e+04 
       4.436311209762e-02       1.345171332855e+04 
       4.462479413166e-02       1.337860394067e+04 
       4.489176403947e-02       1.330527625906e+04 
       4.516433440908e-02       1.323172623855e+04 
       4.544284446186e-02       1.315782668110e+04 
       4.572766307814e-02       1.308369137586e+04 
       4.601919225403e-02       1.300921942817e+04 
       4.631787106331e-02       1.293436960902e+04 
       4.662418021332e-02       1.285914042427e+04 
       4.693864730175e-02       1.278345576226e+04 
       4.726185290400e-02       1.270730256222e+04 
       4.759443764859e-02       1.263067414929e+04 
       4.793711047265e-02       1.255345999337e+04 
       4.829065829330e-02       1.247565034017e+04 
       4.865595738467e-02       1.239718000986e+04 
       4.903398681942e-02       1.231801090991e+04 
       4.942584441985e-02       1.223804304670e+04 
       4.983276577405e-02       1.215712355161e+04 
       5.025614701226e-02       1.207529048992e+04 
       5.069757221683e-02       1.199237374381e+04 
       5.115884656657e-02       1.190824828042e+04 
       5.164203660540e-02       1.182279374925e+04 
       5.214951939209e-02       1.173584132678e+04 
       5.268404274867e-02       1.164721372578e+04 
       5.324879939519e-02       1.155668399489e+04 
       5.384751844408e-02       1.146394540215e+04 
       5.448457851014e-02       1.136873309936e+04 
       5.516514749769e-02       1.127052991934e+04 
       5.589535475770e-02       1.116891675636e+04 
       5.668250132084e-02       1.106320927599e+04 
       5.753531237738e-02       1.095258903177e+04 
       5.846423125088e-02       1.083592846189e+04 
       5.948174234558e-02       1.071187631141e+04 
       6.060268588665e-02       1.057850663212e+04 
       6.184448028348e-02       1.043329684317e+04 
