# Matter power spectrum P(k) at redshift z=0
# for k=1.05963e-05 to 1.75603 h/Mpc,
# number of wavenumbers equal to 608
#    1:k (h/Mpc)              2:P (Mpc/h)^3        
       1.059627851162e-05       4.941133733576e+01 
       2.347687248396e-05       1.062184025375e+02 
       3.640315251181e-05       1.620043860047e+02 
       4.940989706303e-05       2.174050015220e+02 
       6.253246325991e-05       2.727861670512e+02 
       7.580710213168e-05       3.284239783053e+02 
       8.927128399268e-05       3.845554587424e+02 
       1.029640382718e-04       4.413992826471e+02 
       1.169263121521e-04       4.991663727641e+02 
       1.312013524130e-04       5.580662301394e+02 
       1.458351148722e-04       6.183112153822e+02 
       1.608767057663e-04       6.801198202188e+02 
       1.763788592248e-04       7.437192790250e+02 
       1.923984546242e-04       8.093478933856e+02 
       2.089970769427e-04       8.772570778496e+02 
       2.262416221544e-04       9.477132976211e+02 
       2.442049480279e-04       1.020999843346e+03 
       2.629665682089e-04       1.097418475975e+03 
       2.826133838993e-04       1.177290933862e+03 
       3.032404424623e-04       1.260960216309e+03 
       3.249517055094e-04       1.348791613340e+03 
       3.478608000512e-04       1.441173379934e+03 
       3.720917147500e-04       1.538516961755e+03 
       3.977793889383e-04       1.641256642978e+03 
       4.250701248978e-04       1.749848458490e+03 
       4.541217344616e-04       1.864768230013e+03 
       4.851033106816e-04       1.986508503976e+03 
       5.181944966556e-04       2.115574195611e+03 
       5.535841107697e-04       2.252476715465e+03 
       5.914679864692e-04       2.397726337342e+03 
       6.320459026228e-04       2.551822609312e+03 
       6.755175255379e-04       2.715242574026e+03 
       7.220773621034e-04       2.888426833136e+03 
       7.719088370878e-04       3.071763490176e+03 
       8.251777494773e-04       3.265570498273e+03 
       8.820255145847e-04       3.470077079730e+03 
       9.425627305200e-04       3.685405647939e+03 
       1.006863682630e-03       3.911555837204e+03 
       1.074962384218e-03       4.148392364225e+03 
       1.146850629346e-03       4.395639029514e+03 
       1.222478314144e-03       4.652879302600e+03 
       1.301756006296e-03       4.919565207484e+03 
       1.384559466850e-03       5.195018030875e+03 
       1.470735613292e-03       5.478468509395e+03 
       1.560109298191e-03       5.769111279951e+03 
       1.652490274055e-03       6.066074378516e+03 
       1.747679804045e-03       6.368467111360e+03 
       1.845476523898e-03       6.675402436859e+03 
       1.945681323245e-03       6.986015696140e+03 
       2.048101162800e-03       7.299479111999e+03 
       2.152551858867e-03       7.615012774334e+03 
       2.258859942366e-03       7.931891469600e+03 
       2.366863739211e-03       8.249449017021e+03 
       2.476413830445e-03       8.567078078782e+03 
       2.587373043117e-03       8.884230794377e+03 
       2.699616104760e-03       9.200415242048e+03 
       2.813029071641e-03       9.515193178763e+03 
       2.927508617903e-03       9.828179665310e+03 
       3.042961251634e-03       1.013902906793e+04 
       3.159302505992e-03       1.044744191253e+04 
       3.276456138970e-03       1.075315758530e+04 
       3.394353364099e-03       1.105594609923e+04 
       3.512932125856e-03       1.135561119791e+04 
       3.632136427384e-03       1.165198106622e+04 
       3.751915713686e-03       1.194490973135e+04 
       3.872224310518e-03       1.223427011212e+04 
       3.993020917198e-03       1.251995945330e+04 
       4.114268150385e-03       1.280188630089e+04 
       4.235932135171e-03       1.307997392296e+04 
       4.357982139568e-03       1.335416283219e+04 
       4.480390248393e-03       1.362440347188e+04 
       4.603131072674e-03       1.389065695126e+04 
       4.726181490918e-03       1.415289210531e+04 
       4.849520418818e-03       1.441107330782e+04 
       4.973128604300e-03       1.466520253031e+04 
       5.096988445067e-03       1.491523157344e+04 
       5.221083826109e-03       1.516133395253e+04 
       5.345399974893e-03       1.540321940566e+04 
       5.469923332228e-03       1.564121950573e+04 
       5.594641436990e-03       1.587508993881e+04 
       5.719542823132e-03       1.610494037056e+04 
       5.844616927563e-03       1.633078544106e+04 
       5.969854007674e-03       1.655269159816e+04 
       6.095245067394e-03       1.677063671975e+04 
       6.220781790838e-03       1.698461970708e+04 
       6.346456482676e-03       1.719457203868e+04 
       6.472262014493e-03       1.740074152556e+04 
       6.598191776471e-03       1.760307355036e+04 
       6.724239633804e-03       1.780157575828e+04 
       6.850399887352e-03       1.799630315700e+04 
       6.976667238065e-03       1.818727115873e+04 
       7.103036754773e-03       1.837451647202e+04 
       7.229503845003e-03       1.855807974252e+04 
       7.356064228494e-03       1.873799778818e+04 
       7.482713913139e-03       1.891428673736e+04 
       7.609449173102e-03       1.908699842585e+04 
       7.736266528894e-03       1.925615609386e+04 
       7.863162729209e-03       1.942178381244e+04 
       7.990134734352e-03       1.958395289042e+04 
       8.117179701098e-03       1.974268947456e+04 
       8.244294968841e-03       1.989797968485e+04 
       8.371478046918e-03       2.004998601818e+04 
       8.498726602995e-03       2.019858245828e+04 
       8.626038452410e-03       2.034390617896e+04 
       8.753411548388e-03       2.048595208047e+04 
       8.880843973049e-03       2.062474901453e+04 
       9.008333929141e-03       2.076042262876e+04 
       9.135879732419e-03       2.089284963982e+04 
       9.263479804638e-03       2.102227189501e+04 
       9.391132667074e-03       2.114854654575e+04 
       9.518836934558e-03       2.127177605029e+04 
       9.646591309957e-03       2.139195165425e+04 
       9.774394579081e-03       2.150916316294e+04 
       9.902245605964e-03       2.162345541236e+04 
       1.003014332850e-02       2.173475770086e+04 
       1.015808675441e-02       2.184322066715e+04 
       1.028607495747e-02       2.194884473613e+04 
       1.041410707408e-02       2.205170290905e+04 
       1.054218230001e-02       2.215161698466e+04 
       1.067029988743e-02       2.224890542726e+04 
       1.079845914210e-02       2.234341782718e+04 
       1.092665942084e-02       2.243520889574e+04 
       1.105490012909e-02       2.252437393356e+04 
       1.118318071871e-02       2.261091444276e+04 
       1.131150068590e-02       2.269481854949e+04 
       1.143985956927e-02       2.277622949623e+04 
       1.156825694804e-02       2.285500404503e+04 
       1.169669244041e-02       2.293133619568e+04 
       1.182516570195e-02       2.300517268258e+04 
       1.195367642423e-02       2.307648921796e+04 
       1.208222433340e-02       2.314552387016e+04 
       1.221080918902e-02       2.321203126217e+04 
       1.233943078284e-02       2.327620870946e+04 
       1.246808893776e-02       2.333803711654e+04 
       1.259678350681e-02       2.339761549748e+04 
       1.272551437223e-02       2.345481276643e+04 
       1.285428144462e-02       2.350986462031e+04 
       1.298308466211e-02       2.356262147468e+04 
       1.311192398965e-02       2.361318355376e+04 
       1.324079941832e-02       2.366156686842e+04 
       1.336971096470e-02       2.370783871751e+04 
       1.349865867029e-02       2.375197608132e+04 
       1.362764260096e-02       2.379396971991e+04 
       1.375666284650e-02       2.383396344297e+04 
       1.388571952014e-02       2.387186065829e+04 
       1.401481275814e-02       2.390773371174e+04 
       1.414394271945e-02       2.394165585835e+04 
       1.427310958533e-02       2.397355789564e+04 
       1.440231355912e-02       2.400350661434e+04 
       1.453155486589e-02       2.403158748355e+04 
       1.466083375226e-02       2.405774517249e+04 
       1.479015048617e-02       2.408202163605e+04 
       1.491950535670e-02       2.410443782371e+04 
       1.504889867394e-02       2.412504449758e+04 
       1.517833076882e-02       2.414386053042e+04 
       1.530780199306e-02       2.416088339106e+04 
       1.543731271905e-02       2.417616178802e+04 
       1.556686333983e-02       2.418970343641e+04 
       1.569645426904e-02       2.420156314432e+04 
       1.582608594089e-02       2.421172644724e+04 
       1.595575881021e-02       2.422018971439e+04 
       1.608547335248e-02       2.422705913762e+04 
       1.621523006383e-02       2.423225946423e+04 
       1.634502946118e-02       2.423590204328e+04 
       1.647487208229e-02       2.423795913921e+04 
       1.660475848586e-02       2.423843277413e+04 
       1.673468925168e-02       2.423741067495e+04 
       1.686466498077e-02       2.423483400917e+04 
       1.699468629554e-02       2.423081739190e+04 
       1.712475383996e-02       2.422517496781e+04 
       1.725486827978e-02       2.421832170438e+04 
       1.738503030271e-02       2.420988870511e+04 
       1.751524061867e-02       2.420009252199e+04 
       1.764549996006e-02       2.418890986674e+04 
       1.777580908198e-02       2.417636649661e+04 
       1.790616876253e-02       2.416245145170e+04 
       1.803657980313e-02       2.414720931026e+04 
       1.816704302877e-02       2.413063826218e+04 
       1.829755928844e-02       2.411279668352e+04 
       1.842812945537e-02       2.409371193496e+04 
       1.855875442748e-02       2.407332767343e+04 
       1.868943512770e-02       2.405174423986e+04 
       1.882017250440e-02       2.402893651172e+04 
       1.895096753180e-02       2.400493484160e+04 
       1.908182121042e-02       2.397976631362e+04 
       1.921273456747e-02       2.395342767957e+04 
       1.934370865738e-02       2.392598142453e+04 
       1.947474456228e-02       2.389734955892e+04 
       1.960584339246e-02       2.386766370022e+04 
       1.973700628694e-02       2.383686877180e+04 
       1.986823441398e-02       2.380504452193e+04 
       1.999952897165e-02       2.377212409827e+04 
       2.013089118844e-02       2.373820501577e+04 
       2.026232232381e-02       2.370327456133e+04 
       2.039382366883e-02       2.366729842818e+04 
       2.052539654685e-02       2.363039818063e+04 
       2.065704231413e-02       2.359249204454e+04 
       2.078876236054e-02       2.355369831687e+04 
       2.092055811025e-02       2.351393462332e+04 
       2.105243102249e-02       2.347327829776e+04 
       2.118438259228e-02       2.343168209294e+04 
       2.131641435121e-02       2.338921811879e+04 
       2.144852786827e-02       2.334592046777e+04 
       2.158072475063e-02       2.330172152278e+04 
       2.171300664456e-02       2.325677285814e+04 
       2.184537523623e-02       2.321092735409e+04 
       2.197783225269e-02       2.316431967736e+04 
       2.211037946278e-02       2.311699252705e+04 
       2.224301867809e-02       2.306872135118e+04 
       2.237575175398e-02       2.301980466058e+04 
       2.250858059057e-02       2.297013285991e+04 
       2.264150713386e-02       2.291974886162e+04 
       2.277453337675e-02       2.286864111740e+04 
       2.290766136023e-02       2.281678823361e+04 
       2.304089317452e-02       2.276432844583e+04 
       2.317423096027e-02       2.271109317921e+04 
       2.330767690980e-02       2.265731079626e+04 
       2.344123326837e-02       2.260291256358e+04 
       2.357490233550e-02       2.254784584207e+04 
       2.370868646633e-02       2.249211657467e+04 
       2.384258807305e-02       2.243587379510e+04 
       2.397660962628e-02       2.237900879078e+04 
       2.411075365663e-02       2.232152195333e+04 
       2.424502275620e-02       2.226351753400e+04 
       2.437941958019e-02       2.220496500001e+04 
       2.451394684853e-02       2.214587576143e+04 
       2.464860734760e-02       2.208629889749e+04 
       2.478340393192e-02       2.202613009193e+04 
       2.491833952604e-02       2.196556525315e+04 
       2.505341712635e-02       2.190444550660e+04 
       2.518863980300e-02       2.184287838894e+04 
       2.532401070196e-02       2.178089210430e+04 
       2.545953304702e-02       2.171845176110e+04 
       2.559521014191e-02       2.165548362189e+04 
       2.573104537257e-02       2.159217157337e+04 
       2.586704220935e-02       2.152850138338e+04 
       2.600320420942e-02       2.146434928505e+04 
       2.613953501916e-02       2.139982685788e+04 
       2.627603837670e-02       2.133492614293e+04 
       2.641271811454e-02       2.126961204574e+04 
       2.654957816223e-02       2.120400314578e+04 
       2.668662254914e-02       2.113802864051e+04 
       2.682385540740e-02       2.107172470965e+04 
       2.696128097488e-02       2.100511868246e+04 
       2.709890359825e-02       2.093814827676e+04 
       2.723672773624e-02       2.087092164143e+04 
       2.737475796298e-02       2.080336286676e+04 
       2.751299897141e-02       2.073548306665e+04 
       2.765145557688e-02       2.066746082357e+04 
       2.779013272089e-02       2.059910680783e+04 
       2.792903547490e-02       2.053046643493e+04 
       2.806816904437e-02       2.046154043283e+04 
       2.820753877287e-02       2.039249289131e+04 
       2.834715014643e-02       2.032322328933e+04 
       2.848700879800e-02       2.025359993494e+04 
       2.862712051208e-02       2.018378452231e+04 
       2.876749122958e-02       2.011383310487e+04 
       2.890812705284e-02       2.004363325622e+04 
       2.904903425084e-02       1.997332924083e+04 
       2.919021926465e-02       1.990277417581e+04 
       2.933168871305e-02       1.983203907264e+04 
       2.947344939846e-02       1.976116689460e+04 
       2.961550831303e-02       1.969016405690e+04 
       2.975787264502e-02       1.961902549660e+04 
       2.990054978545e-02       1.954767792347e+04 
       3.004354733504e-02       1.947622303123e+04 
       3.018687311140e-02       1.940465983187e+04 
       3.033053515658e-02       1.933299051709e+04 
       3.047454174491e-02       1.926119243388e+04 
       3.061890139119e-02       1.918933858326e+04 
       3.076362285928e-02       1.911726048472e+04 
       3.090871517098e-02       1.904518639235e+04 
       3.105418761541e-02       1.897300449691e+04 
       3.120004975875e-02       1.890073655564e+04 
       3.134631145443e-02       1.882837528107e+04 
       3.149298285384e-02       1.875595744220e+04 
       3.164007441742e-02       1.868351156836e+04 
       3.178759692644e-02       1.861091617980e+04 
       3.193556149517e-02       1.853847482597e+04 
       3.208397958373e-02       1.846582730224e+04 
       3.223286301155e-02       1.839307453383e+04 
       3.238222397144e-02       1.832040683917e+04 
       3.253207504439e-02       1.824764878453e+04 
       3.268242921510e-02       1.817497361922e+04 
       3.283329988828e-02       1.810210644927e+04 
       3.298470090578e-02       1.802932992218e+04 
       3.313664656457e-02       1.795645610523e+04 
       3.328915163572e-02       1.788360158379e+04 
       3.344223138428e-02       1.781078969682e+04 
       3.359590159025e-02       1.773794994589e+04 
       3.375017857072e-02       1.766511882440e+04 
       3.390507920309e-02       1.759224052076e+04 
       3.406062094965e-02       1.751941933233e+04 
       3.421682188346e-02       1.744658736979e+04 
       3.437370071571e-02       1.737377606440e+04 
       3.453127682456e-02       1.730098096031e+04 
       3.468957028571e-02       1.722812114328e+04 
       3.484860190461e-02       1.715537851608e+04 
       3.500839325065e-02       1.708266670044e+04 
       3.516896669331e-02       1.700991491175e+04 
       3.533034544047e-02       1.693720913025e+04 
       3.549255357904e-02       1.686450662346e+04 
       3.565561611802e-02       1.679187414076e+04 
       3.581955903427e-02       1.671925943670e+04 
       3.598440932114e-02       1.664669985841e+04 
       3.615019504011e-02       1.657408537985e+04 
       3.631694537578e-02       1.650159151425e+04 
       3.648469069444e-02       1.642910653359e+04 
       3.665346260644e-02       1.635661803228e+04 
       3.682329403270e-02       1.628422988389e+04 
       3.699421927574e-02       1.621183629698e+04 
       3.716627409555e-02       1.613945912417e+04 
       3.733949579063e-02       1.606713997912e+04 
       3.751392328480e-02       1.599489099027e+04 
       3.768959722012e-02       1.592259346064e+04 
       3.786656005650e-02       1.585034253968e+04 
       3.804485617860e-02       1.577815664543e+04 
       3.822453201062e-02       1.570596319831e+04 
       3.840563613975e-02       1.563384641632e+04 
       3.858821944894e-02       1.556172417971e+04 
       3.877233526002e-02       1.548956892340e+04 
       3.895803948802e-02       1.541752438836e+04 
       3.914539080775e-02       1.534540995328e+04 
       3.933445083390e-02       1.527334917378e+04 
       3.952528431588e-02       1.520129633858e+04 
       3.971795934899e-02       1.512925383982e+04 
       3.991254760342e-02       1.505718093387e+04 
       4.010912457297e-02       1.498511753050e+04 
       4.030776984567e-02       1.491302638663e+04 
       4.050856739836e-02       1.484093991821e+04 
       4.071160591801e-02       1.476883479231e+04 
       4.091697915267e-02       1.469668275990e+04 
       4.112478629526e-02       1.462451372852e+04 
       4.133513240407e-02       1.455230279600e+04 
       4.154812886404e-02       1.448000173581e+04 
       4.176389389369e-02       1.440766479840e+04 
       4.198255310327e-02       1.433528689961e+04 
       4.220424011008e-02       1.426279096023e+04 
       4.242909721838e-02       1.419028046575e+04 
       4.265727617181e-02       1.411759756055e+04 
       4.288893898786e-02       1.404485914471e+04 
       4.312425888507e-02       1.397197700584e+04 
       4.336342131545e-02       1.389892908104e+04 
       4.360662511651e-02       1.382577332922e+04 
       4.385408379977e-02       1.375248985265e+04 
       4.410602699504e-02       1.367892937430e+04 
       4.436270207339e-02       1.360523886806e+04 
       4.462437597547e-02       1.353126061490e+04 
       4.489133727638e-02       1.345713004236e+04 
       4.516389852422e-02       1.338272999585e+04 
       4.544239889594e-02       1.330794256292e+04 
       4.572720722233e-02       1.323303265320e+04 
       4.601872544411e-02       1.315767268913e+04 
       4.631739257298e-02       1.308201044866e+04 
       4.662368924645e-02       1.300588542417e+04 
       4.693814298344e-02       1.292937544846e+04 
       4.726133427024e-02       1.285232643201e+04 
       4.759390363416e-02       1.277485333551e+04 
       4.793655989703e-02       1.269675049241e+04 
       4.829008984408e-02       1.261805805387e+04 
       4.865536959806e-02       1.253870326063e+04 
       4.903337805710e-02       1.245862337765e+04 
       4.942521284149e-02       1.237771140194e+04 
       4.983210930444e-02       1.229595863463e+04 
       5.025546330189e-02       1.221312340346e+04 
       5.069685859431e-02       1.212927472054e+04 
       5.115809998096e-02       1.204423489779e+04 
       5.164125355603e-02       1.195778188565e+04 
       5.214869584266e-02       1.186985268785e+04 
       5.268317402176e-02       1.178021380792e+04 
       5.324788004230e-02       1.168863291347e+04 
       5.384654208501e-02       1.159486246846e+04 
       5.448353763439e-02       1.149855686663e+04 
       5.516403321928e-02       1.139923384642e+04 
       5.589415651411e-02       1.129650373995e+04 
       5.668120650772e-02       1.118958840634e+04 
       5.753390591501e-02       1.107760459544e+04 
       5.846269509055e-02       1.095974035564e+04 
       5.948005495053e-02       1.083427047327e+04 
       6.060082177631e-02       1.069938272941e+04 
       6.184240982756e-02       1.055254135505e+04 
