# dimensionless total lensed [l(l+1)/2pi] C_l's
# for l=2 to 2500, i.e. number of multipoles equal to 2499
#
# -> if you prefer output in CAMB/HealPix/LensPix units/order, set 'format' to 'camb' in input file
# -> if you don't want to see such a header, set 'headers' to 'no' in input file
# -> for CMB lensing (phi), these are C_l^phi-phi for the lensing potential.
#    Remember the conversion factors:
#    C_l^dd (deflection) = l(l+1) C_l^phi-phi
#    C_l^gg (shear/convergence) = 1/4 (l(l+1))^2 C_l^phi-phi
#
# 1:l     2:TT                     3:EE                     4:TE                     5:BB                     6:phiphi                 7:TPhi                   8:Ephi               
    2       1.591974620445e-10       7.397519352510e-15       4.547152028925e-13       2.293491501143e-19       8.171643285830e-09       5.236554456130e-10      -2.488595972589e-12 
    3       1.512967755389e-10       1.245489557115e-14       5.689447165322e-13       4.589128429131e-19       5.009556902108e-09       3.848285005553e-10      -2.182013102198e-12 
    4       1.422695889758e-10       1.432558342296e-14       5.900014171191e-13       7.653240150747e-19       3.478776871697e-09       2.982605930676e-10      -1.723656519543e-12 
    5       1.346830790553e-10       1.297993924527e-14       5.555775548024e-13       1.148848180504e-18       2.596302118689e-09       2.396215546522e-10      -1.258241679428e-12 
    6       1.288565442266e-10       9.774626027031e-15       4.923759892556e-13       1.609800234764e-18       2.028650374984e-09       1.974930157819e-10      -8.368009310244e-13 
    7       1.245500010102e-10       6.316037428518e-15       4.189084330863e-13       2.148534124389e-18       1.637431097715e-09       1.659250672851e-10      -4.849221636475e-13 
    8       1.215075569606e-10       3.670793572364e-15       3.465071841576e-13       2.765431397380e-18       1.353995327642e-09       1.415484442986e-10      -2.134079884405e-13 
    9       1.194985714380e-10       2.153610291901e-15       2.821459925530e-13       3.460889086459e-18       1.140635567445e-09       1.223114876643e-10      -2.288003465222e-14 
   10       1.182475658016e-10       1.528381094170e-15       2.299581756063e-13       4.235307401552e-18       9.752077410704e-10       1.068591676220e-10       9.359473548755e-14 
   11       1.176584456166e-10       1.360142386290e-15       1.916840178555e-13       5.089077713409e-18       8.238885438930e-10       9.455889335709e-11       1.475200322074e-13 
   12       1.175563668187e-10       1.296531572882e-15       1.671167783512e-13       6.022571296174e-18       7.202582440542e-10       8.394314204895e-11       1.549953174163e-13 
   13       1.178017921087e-10       1.181090686187e-15       1.547239177005e-13       7.036129263648e-18       6.351587059070e-10       7.522704462849e-11       1.311596512867e-13 
   14       1.183723966851e-10       1.019914331646e-15       1.520011919866e-13       8.130054083175e-18       5.643279361438e-10       6.766201018539e-11       8.955968811802e-14 
   15       1.191959786007e-10       8.838234319590e-16       1.560280129129e-13       9.304602984818e-18       5.046840988697e-10       6.129142087513e-11       4.279293882082e-14 
   16       1.201970480051e-10       8.245505011699e-16       1.640752990941e-13       1.055998350421e-17       4.539533538184e-10       5.584338019125e-11      -1.922102595745e-16 
   17       1.213887806958e-10       8.430501936685e-16       1.738004168898e-13       1.189635130868e-17       4.104179641750e-10       5.112231890118e-11      -3.359197817897e-14 
   18       1.226890384502e-10       9.016179582239e-16       1.834480582649e-13       1.331380924424e-17       3.726175250704e-10       4.695545325054e-11      -5.463587394296e-14 
   19       1.241099393755e-10       9.708983523330e-16       1.922429388904e-13       1.481241538110e-17       3.399549430925e-10       4.327373461481e-11      -6.328895290965e-14 
   20       1.256428115869e-10       1.026405241154e-15       1.996635478807e-13       1.639217542231e-17       3.111767887453e-10       3.995853749365e-11      -6.139868306555e-14 
   21       1.272791189037e-10       1.078827423174e-15       2.057643016079e-13       1.805306561504e-17       2.858339633879e-10       3.699448387107e-11      -5.174020004684e-14 
   22       1.289780732171e-10       1.152714402397e-15       2.108849232296e-13       1.979502369182e-17       2.633225363611e-10       3.434965306899e-11      -3.813675201904e-14 
   23       1.307492584480e-10       1.263909588216e-15       2.154914299716e-13       2.161797612643e-17       2.433351370727e-10       3.197616547681e-11      -2.359466549864e-14 
   24       1.325922431391e-10       1.423474507436e-15       2.201310683384e-13       2.352182903060e-17       2.254120017151e-10       2.979803268334e-11      -1.104806575954e-14 
   25       1.344927054344e-10       1.627220892429e-15       2.251617151477e-13       2.550649994789e-17       2.093437100104e-10       2.781803123694e-11      -2.044191188430e-15 
   26       1.364191184430e-10       1.865066721545e-15       2.308318799610e-13       2.757190672835e-17       1.948407341025e-10       2.604238913139e-11       2.496091981564e-15 
   27       1.383818699310e-10       2.132741332292e-15       2.370723881239e-13       2.971799538484e-17       1.817302041404e-10       2.444910598819e-11       2.796046453983e-15 
   28       1.403925688641e-10       2.427499443896e-15       2.436405786920e-13       3.194473296746e-17       1.697872686694e-10       2.299679347000e-11      -3.154971638980e-16 
   29       1.424557316752e-10       2.749141623049e-15       2.501843165775e-13       3.425213967834e-17       1.589516845930e-10       2.167497977665e-11      -5.761093339707e-15 
   30       1.445588140769e-10       3.098057448709e-15       2.562223534962e-13       3.664027080934e-17       1.491078693238e-10       2.046947144967e-11      -1.207089935459e-14 
   31       1.466788614997e-10       3.474105091265e-15       2.612151349342e-13       3.910921660642e-17       1.400559756831e-10       1.935526332120e-11      -1.762094419965e-14 
   32       1.488234100634e-10       3.875551910225e-15       2.648558462272e-13       4.165912376261e-17       1.317497820889e-10       1.832447316502e-11      -2.172360690617e-14 
   33       1.510022991174e-10       4.299656717989e-15       2.668812970343e-13       4.429018953910e-17       1.241310323163e-10       1.736671106644e-11      -2.393027554673e-14 
   34       1.532181375654e-10       4.744356068982e-15       2.670523236931e-13       4.700265602694e-17       1.170936713070e-10       1.646663601044e-11      -2.390566462008e-14 
   35       1.554742574790e-10       5.213357693737e-15       2.653542418902e-13       4.979679342593e-17       1.106019545674e-10       1.562428578977e-11      -2.197441322072e-14 
   36       1.577677338256e-10       5.712921459672e-15       2.618701431090e-13       5.267291801751e-17       1.046040398726e-10       1.484078801573e-11      -1.878296828584e-14 
   37       1.600905972730e-10       6.249285190931e-15       2.567192206232e-13       5.563137850361e-17       9.902217173213e-11       1.411376209521e-11      -1.506872432979e-14 
   38       1.624446228320e-10       6.824122719310e-15       2.500140945960e-13       5.867248015732e-17       9.384216536299e-11       1.344156603805e-11      -1.131367631781e-14 
   39       1.648301386616e-10       7.437614131306e-15       2.418942166345e-13       6.179654035985e-17       8.904784543884e-11       1.281975481394e-11      -7.990528802538e-15 
   40       1.672412593604e-10       8.089633614924e-15       2.325404608530e-13       6.500391164725e-17       8.459382557036e-11       1.223946469503e-11      -5.662298086533e-15 
   41       1.696694792032e-10       8.779897005038e-15       2.221148855698e-13       6.829494685986e-17       8.042137060321e-11       1.169038210494e-11      -4.815229916965e-15 
   42       1.721173759104e-10       9.508515223286e-15       2.105505431033e-13       7.166987582673e-17       7.651832355033e-11       1.117171111463e-11      -5.279396728967e-15 
   43       1.745883055850e-10       1.027558386639e-14       1.976973706855e-13       7.512889212210e-17       7.287439507622e-11       1.068414706689e-11      -6.628405698275e-15 
   44       1.770822288185e-10       1.108101893458e-14       1.833771484439e-13       7.867218617546e-17       6.946317439224e-11       1.022670069220e-11      -8.329069902115e-15 
   45       1.795975103549e-10       1.192468809934e-14       1.674075175077e-13       8.229991189278e-17       6.625158605896e-11       9.797306135553e-12      -9.846810513086e-15 
   46       1.821377633602e-10       1.280687575738e-14       1.496869909974e-13       8.601207563914e-17       6.323465729265e-11       9.395201194221e-12      -1.101489085031e-14 
   47       1.847064711806e-10       1.372793935806e-14       1.301321861112e-13       8.980861333113e-17       6.040896076485e-11       9.019013687408e-12      -1.176441549175e-14 
   48       1.873048121558e-10       1.468817766718e-14       1.086537834411e-13       9.368941823274e-17       5.776212822247e-11       8.665973085353e-12      -1.202184854780e-14 
   49       1.899314418551e-10       1.568782854769e-14       8.515615292859e-14       9.765433862580e-17       5.527218516482e-11       8.331809797066e-12      -1.170890475555e-14 
   50       1.925837983990e-10       1.672706289403e-14       5.956764223527e-14       1.017031730783e-16       5.291418493623e-11       8.012028414425e-12      -1.078736693224e-14 
   51       1.952629413384e-10       1.780596964358e-14       3.194200191764e-14       1.058356601403e-16       5.068377746282e-11       7.706368535068e-12      -9.408132582017e-15 
   52       1.979696498161e-10       1.892456286040e-14       2.383844411081e-15       1.100514818240e-16       4.857888793141e-11       7.415380692111e-12      -7.802436055537e-15 
   53       2.007028716550e-10       2.008278288235e-14      -2.897856864618e-14       1.143502633770e-16       4.659266233105e-11       7.139123025947e-12      -6.242415866387e-15 
   54       2.034595772693e-10       2.128049392070e-14      -6.199225752017e-14       1.187315708390e-16       4.471314563198e-11       6.877125228742e-12      -5.043119966959e-15 
   55       2.062364732997e-10       2.251753018041e-14      -9.651856080612e-14       1.231949594454e-16       4.292693641340e-11       6.628620366913e-12      -4.481780815278e-15 
   56       2.090359767109e-10       2.379385313693e-14      -1.325640494905e-13       1.277401385115e-16       4.123195117385e-11       6.393390387689e-12      -4.527563053770e-15 
   57       2.118614689017e-10       2.510942912580e-14      -1.701802625028e-13       1.323668432306e-16       3.962726725476e-11       6.171067500491e-12      -5.048191750324e-15 
   58       2.147154939768e-10       2.646418374636e-14      -2.094269336724e-13       1.370747869650e-16       3.810926094706e-11       5.960859640445e-12      -5.885609048636e-15 
   59       2.175996851144e-10       2.785800135169e-14      -2.503724853810e-13       1.418636607852e-16       3.667144059682e-11       5.761524849689e-12      -6.854756189206e-15 
   60       2.205146909339e-10       2.929072453866e-14      -2.930945222144e-13       1.467331330074e-16       3.530427971069e-11       5.571345658671e-12      -7.742355530337e-15 
   61       2.234606817770e-10       3.076208108326e-14      -3.376625004426e-13       1.516829208978e-16       3.399786674923e-11       5.388590731990e-12      -8.356464058177e-15 
   62       2.264391679264e-10       3.227144673579e-14      -3.840800739630e-13       1.567130256356e-16       3.275092709893e-11       5.213078850386e-12      -8.690886986728e-15 
   63       2.294514607009e-10       3.381802803518e-14      -4.323306243852e-13       1.618235495108e-16       3.156353923755e-11       5.044922118091e-12      -8.795675180934e-15 
   64       2.324980744165e-10       3.540092740910e-14      -4.823938727862e-13       1.670146302040e-16       3.043442075552e-11       4.884059718881e-12      -8.729995360511e-15 
   65       2.355786711540e-10       3.701914036185e-14      -5.342458078151e-13       1.722864426153e-16       2.936085083293e-11       4.730247757912e-12      -8.562523061903e-15 
   66       2.386920055268e-10       3.867155266228e-14      -5.878586137976e-13       1.776392006915e-16       2.833859271636e-11       4.583049103559e-12      -8.371835600229e-15 
   67       2.418358694485e-10       4.035693753171e-14      -6.432005988401e-13       1.830731592547e-16       2.736181619583e-11       4.441823229251e-12      -8.246805031236e-15 
   68       2.450080341138e-10       4.207407889737e-14      -7.002392782147e-13       1.885886043362e-16       2.642465699068e-11       4.305915755269e-12      -8.265938087907e-15 
   69       2.482094210435e-10       4.382217643930e-14      -7.589515107211e-13       1.941858178184e-16       2.552643510852e-11       4.175294378682e-12      -8.429656413349e-15 
   70       2.514414773073e-10       4.560051794200e-14      -8.193152964987e-13       1.998651088789e-16       2.466735945560e-11       4.050024143042e-12      -8.714937407745e-15 
   71       2.547052059669e-10       4.740836089536e-14      -8.813068121192e-13       2.056268263585e-16       2.384694946497e-11       3.930074179364e-12      -9.095010283885e-15 
   72       2.580011363482e-10       4.924493290679e-14      -9.449004193882e-13       2.114713602940e-16       2.306399943803e-11       3.815312655383e-12      -9.539210588569e-15 
   73       2.613292943126e-10       5.110943211333e-14      -1.010068674148e-12       2.173991434536e-16       2.231654288616e-11       3.705501724799e-12      -1.001283472401e-14 
   74       2.646891725295e-10       5.300102759373e-14      -1.076782335078e-12       2.234106528699e-16       2.160181687228e-11       3.600292476541e-12      -1.047699446925e-14 
   75       2.680797007480e-10       5.491885978057e-14      -1.145010372501e-12       2.295064113747e-16       2.091622635245e-11       3.499219884010e-12      -1.088847150156e-14 
   76       2.714998216529e-10       5.686188669690e-14      -1.214717784743e-12       2.356868980815e-16       2.025623759461e-11       3.401821665367e-12      -1.120909180273e-14 
   77       2.749504053808e-10       5.882838938399e-14      -1.285858568068e-12       2.419522575974e-16       1.962132534688e-11       3.308031052405e-12      -1.143614402153e-14 
   78       2.784326317372e-10       6.081637661566e-14      -1.358381474812e-12       2.483025403251e-16       1.901150081236e-11       3.217846801547e-12      -1.157726951220e-14 
   79       2.819473985546e-10       6.282372836790e-14      -1.432232056524e-12       2.547377884831e-16       1.842641391129e-11       3.131213167556e-12      -1.164148346984e-14 
   80       2.854953043818e-10       6.484819306945e-14      -1.507352627811e-12       2.612580357721e-16       1.786533667414e-11       3.048017393687e-12      -1.163922466481e-14 
   81       2.890766311741e-10       6.688738485244e-14      -1.583682230180e-12       2.678633070427e-16       1.732714663463e-11       2.968087201836e-12      -1.158240517703e-14 
   82       2.926913269831e-10       6.893878080298e-14      -1.661156595881e-12       2.745536179617e-16       1.681031022284e-11       2.891188282684e-12      -1.148446013035e-14 
   83       2.963389886469e-10       7.099971821179e-14      -1.739708111759e-12       2.813289746797e-16       1.631286615825e-11       2.817021785853e-12      -1.136039742695e-14 
   84       3.000191331448e-10       7.306764983001e-14      -1.819271157045e-12       2.881893877096e-16       1.583290264756e-11       2.745298455364e-12      -1.122389529982e-14 
   85       3.037321012688e-10       7.514096427947e-14      -1.899799212693e-12       2.951349169347e-16       1.537011625002e-11       2.675980654828e-12      -1.107793318129e-14 
   86       3.074782727209e-10       7.721829724055e-14      -1.981250535308e-12       3.021656334862e-16       1.492448219248e-11       2.609076049767e-12      -1.092269159488e-14 
   87       3.112577784931e-10       7.929828710293e-14      -2.063583088742e-12       3.092816061025e-16       1.449577535659e-11       2.544563325981e-12      -1.075836635567e-14 
   88       3.150704884082e-10       8.137957655245e-14      -2.146754598258e-12       3.164829010347e-16       1.408356197102e-11       2.482390967850e-12      -1.058516868818e-14 
   89       3.189159986617e-10       8.346081415789e-14      -2.230722604690e-12       3.237695819527e-16       1.368719130384e-11       2.422476036638e-12      -1.040332534421e-14 
   90       3.227936193628e-10       8.554065595785e-14      -2.315444518609e-12       3.311417098512e-16       1.330578735476e-11       2.364702948807e-12      -1.021307872072e-14 
   91       3.267023620761e-10       8.761776704754e-14      -2.400877674486e-12       3.385993429553e-16       1.293824054752e-11       2.308922254312e-12      -1.001468697766e-14 
   92       3.306409273630e-10       8.969082316563e-14      -2.486979384851e-12       3.461425366265e-16       1.258319942210e-11       2.254949414915e-12      -9.808424155862e-15 
   93       3.346080811315e-10       9.175839846818e-14      -2.573702243005e-12       3.537714495910e-16       1.223939152742e-11       2.202608906152e-12      -9.594785364074e-15 
   94       3.386038754959e-10       9.381860609599e-14      -2.660979105361e-12       3.614866811036e-16       1.190665935101e-11       2.151876764252e-12      -9.375137385323e-15 
   95       3.426285893540e-10       9.586940623089e-14      -2.748735940073e-12       3.692889845552e-16       1.158506555811e-11       2.102757319253e-12      -9.151166595025e-15 
   96       3.466823489137e-10       9.790871511613e-14      -2.836896366336e-12       3.771791670157e-16       1.127457393572e-11       2.055239190089e-12      -8.924685503999e-15 
   97       3.507651205708e-10       9.993440508094e-14      -2.925381643324e-12       3.851580905998e-16       1.097504560380e-11       2.009294685049e-12      -8.697635691268e-15 
   98       3.548767037883e-10       1.019443045650e-13      -3.014110659131e-12       3.932266738318e-16       1.068623522646e-11       1.964879202230e-12      -8.472090736873e-15 
   99       3.590167239743e-10       1.039361981431e-13      -3.102999919711e-12       4.013858930115e-16       1.040778722315e-11       1.921930629995e-12      -8.250259154677e-15 
  100       3.631846253607e-10       1.059078265497e-13      -3.191963537819e-12       4.096367835790e-16       1.013923197983e-11       1.880368747429e-12      -8.034487325170e-15 
  101       3.673796638820e-10       1.078568867030e-13      -3.280913221953e-12       4.179804414806e-16       9.879982060164e-12       1.840094624796e-12      -7.827262428283e-15 
  102       3.716009000533e-10       1.097810317303e-13      -3.369758265292e-12       4.264180245337e-16       9.629328416713e-12       1.800990023993e-12      -7.631215376187e-15 
  103       3.758471918493e-10       1.116778709918e-13      -3.458405534641e-12       4.349507537926e-16       9.386436602109e-12       1.762916799010e-12      -7.449123746109e-15 
  104       3.801174224863e-10       1.135450834505e-13      -3.546764094632e-12       4.435797910930e-16       9.150536038220e-12       1.725749526731e-12      -7.283286185933e-15 
  105       3.844112341498e-10       1.153807751694e-13      -3.634759815591e-12       4.523058499081e-16       8.921525102465e-12       1.689479710803e-12      -7.133543068911e-15 
  106       3.887283805680e-10       1.171831703770e-13      -3.722322727549e-12       4.611295342257e-16       8.699441096919e-12       1.654124601998e-12      -6.998992681115e-15 
  107       3.930684964732e-10       1.189505036903e-13      -3.809382600591e-12       4.700514576788e-16       8.484272842279e-12       1.619694993326e-12      -6.878591945772e-15 
