# Matter power spectrum P(k) at redshift z=0
# for k=1.10893e-05 to 1.57436 h/Mpc,
# number of wavenumbers equal to 618
#    1:k (h/Mpc)              2:P (Mpc/h)^3        
       1.108925555549e-05       4.150554980735e+01 
       2.398246914067e-05       8.720519262730e+01 
       3.692279349684e-05       1.321788742590e+02 
       4.994511708497e-05       1.769584095796e+02 
       6.308492136491e-05       2.218691440240e+02 
       7.637859777532e-05       2.671667798183e+02 
       8.986377506534e-05       3.130772823430e+02 
       1.035796613316e-04       3.598129576027e+02 
       1.175674051476e-04       4.075810291661e+02 
       1.318704802067e-04       4.565885151787e+02 
       1.465350979009e-04       5.070455912360e+02 
       1.616106521961e-04       5.591677573686e+02 
       1.771502009725e-04       6.131775805441e+02 
       1.932109876142e-04       6.693055934871e+02 
       2.098550059477e-04       7.277910821960e+02 
       2.271496105147e-04       7.888819057766e+02 
       2.451681724425e-04       8.528341556347e+02 
       2.639907786290e-04       9.199108058536e+02 
       2.837049683009e-04       9.903797713668e+02 
       3.044064959063e-04       1.064510895324e+03 
       3.262001023733e-04       1.142572026091e+03 
       3.492002676066e-04       1.224823816258e+03 
       3.735319053162e-04       1.311513384530e+03 
       3.993309466474e-04       1.402867072088e+03 
       4.267447416413e-04       1.499082034520e+03 
       4.559321878983e-04       1.600317583612e+03 
       4.870634753653e-04       1.706686744768e+03 
       5.203193176085e-04       1.818248804272e+03 
       5.558895275168e-04       1.935004288549e+03 
       5.939707951637e-04       2.056893295344e+03 
       6.347635450615e-04       2.183798516379e+03 
       6.784677972565e-04       2.315553695566e+03 
       7.252780379056e-04       2.451957164796e+03 
       7.753772214092e-04       2.592789664810e+03 
       8.289301703378e-04       2.737834283569e+03 
       8.860767919913e-04       2.886894713503e+03 
       9.469256605877e-04       3.039809089264e+03 
       1.011548584487e-03       3.196455035359e+03 
       1.079976755445e-03       3.356746880787e+03 
       1.152198946194e-03       3.520621656387e+03 
       1.228161996234e-03       3.688021850154e+03 
       1.307773545067e-03       3.858873694728e+03 
       1.390906697212e-03       4.033055474194e+03 
       1.477406092863e-03       4.210407847440e+03 
       1.567094750763e-03       4.390739186226e+03 
       1.659781053924e-03       4.573791436855e+03 
       1.755265344066e-03       4.759262552473e+03 
       1.853345739964e-03       4.946817735091e+03 
       1.953822958691e-03       5.136101071867e+03 
       2.056504066014e-03       5.326747431712e+03 
       2.161205194939e-03       5.518392742070e+03 
       2.267753344627e-03       5.710682553914e+03 
       2.375987409272e-03       5.903278501719e+03 
       2.485758596264e-03       6.095862609986e+03 
       2.596930384383e-03       6.288139934108e+03 
       2.709378153906e-03       6.479839653070e+03 
       2.822988597510e-03       6.670715480289e+03 
       2.937658997731e-03       6.860547089633e+03 
       3.053296435776e-03       7.049134524559e+03 
       3.169816978693e-03       7.236300970565e+03 
       3.287144877598e-03       7.421890821853e+03 
       3.405211798525e-03       7.605765578416e+03 
       3.523956099132e-03       7.787805206009e+03 
       3.643322158419e-03       7.967903526617e+03 
       3.763259762359e-03       8.145969319303e+03 
       3.883723545407e-03       8.321922893889e+03 
       4.004672485995e-03       8.495697008411e+03 
       4.126069452926e-03       8.667233181272e+03 
       4.247880798979e-03       8.836481179423e+03 
       4.370075997751e-03       9.003400904183e+03 
       4.492627319719e-03       9.167957604260e+03 
       4.615509543651e-03       9.330124537060e+03 
       4.738699699689e-03       9.489878624794e+03 
       4.862176840711e-03       9.647202918671e+03 
       4.985921838858e-03       9.802085883114e+03 
       5.109917204416e-03       9.954518923818e+03 
       5.234146924517e-03       1.010450168148e+04 
       5.358596319406e-03       1.025203084419e+04 
       5.483251914258e-03       1.039710147821e+04 
       5.608101324755e-03       1.053973067969e+04 
       5.733133154863e-03       1.067992150515e+04 
       5.858336905389e-03       1.081768146966e+04 
       5.983702892113e-03       1.095301571880e+04 
       6.109222172386e-03       1.108593934531e+04 
       6.234886479264e-03       1.121645264426e+04 
       6.360688162310e-03       1.134459388749e+04 
       6.486620134337e-03       1.147036682270e+04 
       6.612675823440e-03       1.159379592569e+04 
       6.738849129723e-03       1.171490210695e+04 
       6.865134386226e-03       1.183368946760e+04 
       6.991526323600e-03       1.195018114417e+04 
       7.118020038128e-03       1.206439627087e+04 
       7.244610962735e-03       1.217635494314e+04 
       7.371294840690e-03       1.228605834480e+04 
       7.498067701710e-03       1.239354998988e+04 
       7.624925840223e-03       1.249883897889e+04 
       7.751865795582e-03       1.260195634483e+04 
       7.878884334020e-03       1.270291170609e+04 
       8.005978432186e-03       1.280171737514e+04 
       8.133145262101e-03       1.289842410691e+04 
       8.260382177402e-03       1.299303151684e+04 
       8.387686700746e-03       1.308557671058e+04 
       8.515056512268e-03       1.317606138594e+04 
       8.642489438993e-03       1.326451927147e+04 
       8.769983445112e-03       1.335094785628e+04 
       8.897536623049e-03       1.343540190094e+04 
       9.025147185239e-03       1.351789526268e+04 
       9.152813456563e-03       1.359843587632e+04 
       9.280533867374e-03       1.367706269808e+04 
       9.408306947066e-03       1.375375387989e+04 
       9.536131318136e-03       1.382857941345e+04 
       9.664005690708e-03       1.390153692964e+04 
       9.791928857459e-03       1.397264995372e+04 
       9.919899688936e-03       1.404193758673e+04 
       1.004791712922e-02       1.410941994498e+04 
       1.017598019189e-02       1.417512049554e+04 
       1.030408795634e-02       1.423905815264e+04 
       1.043223956428e-02       1.430122975279e+04 
       1.056043421657e-02       1.436168564422e+04 
       1.068867117020e-02       1.442044181006e+04 
       1.081694973561e-02       1.447751116848e+04 
       1.094526927403e-02       1.453291479130e+04 
       1.107362919517e-02       1.458664331115e+04 
       1.120202895498e-02       1.463877793817e+04 
       1.133046805357e-02       1.468929926965e+04 
       1.145894603334e-02       1.473820545143e+04 
       1.158746247715e-02       1.478553345861e+04 
       1.171601700670e-02       1.483130498959e+04 
       1.184460928096e-02       1.487554173697e+04 
       1.197323899477e-02       1.491826908535e+04 
       1.210190587748e-02       1.495947236365e+04 
       1.223060969171e-02       1.499919291586e+04 
       1.235935023222e-02       1.503746136899e+04 
       1.248812732481e-02       1.507425598106e+04 
       1.261694082534e-02       1.510961381651e+04 
       1.274579061884e-02       1.514357027883e+04 
       1.287467661857e-02       1.517610400237e+04 
       1.300359876533e-02       1.520726626656e+04 
       1.313255702664e-02       1.523705428938e+04 
       1.326155139612e-02       1.526549625284e+04 
       1.339058189283e-02       1.529259322794e+04 
       1.351964856070e-02       1.531837256312e+04 
       1.364875146804e-02       1.534286057563e+04 
       1.377789070699e-02       1.536605866247e+04 
       1.390706639311e-02       1.538797755312e+04 
       1.403627866499e-02       1.540863747532e+04 
       1.416552768385e-02       1.542805662790e+04 
       1.429481363324e-02       1.544625603865e+04 
       1.442413671871e-02       1.546326348920e+04 
       1.455349716757e-02       1.547902063370e+04 
       1.468289522867e-02       1.549364424804e+04 
       1.481233117214e-02       1.550706683502e+04 
       1.494180528926e-02       1.551934922704e+04 
       1.507131789230e-02       1.553051426292e+04 
       1.520086931440e-02       1.554053052159e+04 
       1.533045990943e-02       1.554945847333e+04 
       1.546009005200e-02       1.555727524078e+04 
       1.558976013730e-02       1.556402012996e+04 
       1.571947058117e-02       1.556971642796e+04 
       1.584922182004e-02       1.557436339241e+04 
       1.597901431093e-02       1.557795295989e+04 
       1.610884853152e-02       1.558052904792e+04 
       1.623872498020e-02       1.558210419759e+04 
       1.636864417612e-02       1.558269185375e+04 
       1.649860665927e-02       1.558228615484e+04 
       1.662861299066e-02       1.558088551761e+04 
       1.675866375236e-02       1.557854922920e+04 
       1.688875954771e-02       1.557526912458e+04 
       1.701890100145e-02       1.557106243098e+04 
       1.714908875992e-02       1.556595511687e+04 
       1.727932349124e-02       1.555990822662e+04 
       1.740960588556e-02       1.555298153667e+04 
       1.753993665524e-02       1.554519112801e+04 
       1.767031653514e-02       1.553653632567e+04 
       1.780074628288e-02       1.552699937376e+04 
       1.793122667910e-02       1.551662698102e+04 
       1.806175852779e-02       1.550546578131e+04 
       1.819234265659e-02       1.549347455441e+04 
       1.832297991709e-02       1.548063338664e+04 
       1.845367118526e-02       1.546704405628e+04 
       1.858441736173e-02       1.545265914202e+04 
       1.871521937223e-02       1.543752841291e+04 
       1.884607816795e-02       1.542162120496e+04 
       1.897699472600e-02       1.540497143440e+04 
       1.910797004980e-02       1.538758716413e+04 
       1.923900516957e-02       1.536951279793e+04 
       1.937010114275e-02       1.535067302326e+04 
       1.950125905455e-02       1.533118768904e+04 
       1.963248001841e-02       1.531098331679e+04 
       1.976376517655e-02       1.529009452470e+04 
       1.989511570050e-02       1.526858418077e+04 
       2.002653279165e-02       1.524638008782e+04 
       2.015801768187e-02       1.522352813267e+04 
       2.028957163407e-02       1.520009798209e+04 
       2.042119594288e-02       1.517598595519e+04 
       2.055289193522e-02       1.515133891924e+04 
       2.068466097102e-02       1.512599758304e+04 
       2.081650444389e-02       1.510011109696e+04 
       2.094842378184e-02       1.507362969247e+04 
       2.108042044799e-02       1.504661106486e+04 
       2.121249594135e-02       1.501902854546e+04 
       2.134465179759e-02       1.499089398586e+04 
       2.147688958984e-02       1.496220822997e+04 
       2.160921092954e-02       1.493298068390e+04 
       2.174161746728e-02       1.490329027720e+04 
       2.187411089369e-02       1.487303353798e+04 
       2.200669294035e-02       1.484227969834e+04 
       2.213936538073e-02       1.481108806541e+04 
       2.227213003118e-02       1.477939322199e+04 
       2.240498875189e-02       1.474723008965e+04 
       2.253794344795e-02       1.471458098175e+04 
       2.267099607044e-02       1.468148893727e+04 
       2.280414861746e-02       1.464798512438e+04 
       2.293740313531e-02       1.461402178027e+04 
       2.307076171964e-02       1.457963448977e+04 
       2.320422651669e-02       1.454485530259e+04 
       2.333779972445e-02       1.450961847421e+04 
       2.347148359404e-02       1.447404879904e+04 
       2.360528043095e-02       1.443806651673e+04 
       2.373919259646e-02       1.440171186403e+04 
       2.387322250900e-02       1.436496812706e+04 
       2.400737264564e-02       1.432784397208e+04 
       2.414164554355e-02       1.429041026950e+04 
       2.427604380160e-02       1.425260166960e+04 
       2.441057008190e-02       1.421445826028e+04 
       2.454522711146e-02       1.417599364564e+04 
       2.468001768391e-02       1.413722226903e+04 
       2.481494466126e-02       1.409808809269e+04 
       2.495001097566e-02       1.405867464655e+04 
       2.508521963135e-02       1.401897016997e+04 
       2.522057370653e-02       1.397899755864e+04 
       2.535607635541e-02       1.393868578856e+04 
       2.549173081022e-02       1.389812598514e+04 
       2.562754038340e-02       1.385733414643e+04 
       2.576350846979e-02       1.381623968240e+04 
       2.589963854889e-02       1.377488558939e+04 
       2.603593418726e-02       1.373330193298e+04 
       2.617239904092e-02       1.369149127073e+04 
       2.630903685792e-02       1.364942254310e+04 
       2.644585148092e-02       1.360713695052e+04 
       2.658284684992e-02       1.356463036705e+04 
       2.672002700504e-02       1.352197841522e+04 
       2.685739608944e-02       1.347897139359e+04 
       2.699495835232e-02       1.343584486415e+04 
       2.713271815203e-02       1.339255572000e+04 
       2.727067995929e-02       1.334907669290e+04 
       2.740884836055e-02       1.330537172940e+04 
       2.754722806141e-02       1.326152593901e+04 
       2.768582389030e-02       1.321749384508e+04 
       2.782464080212e-02       1.317332116224e+04 
       2.796368388215e-02       1.312898443402e+04 
       2.810295835005e-02       1.308448746085e+04 
       2.824246956404e-02       1.303983291992e+04 
       2.838222302522e-02       1.299508176451e+04 
       2.852222438204e-02       1.295020303416e+04 
       2.866247943501e-02       1.290513828499e+04 
       2.880299414149e-02       1.285998124243e+04 
       2.894377462080e-02       1.281468698683e+04 
       2.908482715942e-02       1.276933210891e+04 
       2.922615821643e-02       1.272383948151e+04 
       2.936777442924e-02       1.267823343379e+04 
       2.950968261943e-02       1.263251473217e+04 
       2.965188979893e-02       1.258675562763e+04 
       2.979440317643e-02       1.254086215610e+04 
       2.993723016403e-02       1.249491275091e+04 
       3.008037838420e-02       1.244888979260e+04 
       3.022385567700e-02       1.240276905581e+04 
       3.036767010770e-02       1.235658803014e+04 
       3.051182997460e-02       1.231034297913e+04 
       3.065634381727e-02       1.226404141308e+04 
       3.080122042517e-02       1.221768891951e+04 
       3.094646884659e-02       1.217126056947e+04 
       3.109209839803e-02       1.212478287685e+04 
       3.123811867401e-02       1.207827550850e+04 
       3.138453955726e-02       1.203173289722e+04 
       3.153137122952e-02       1.198510542019e+04 
       3.167862418267e-02       1.193851480393e+04 
       3.182630923051e-02       1.189184173322e+04 
       3.197443752103e-02       1.184515609156e+04 
       3.212302054932e-02       1.179847070070e+04 
       3.227207017104e-02       1.175169601338e+04 
       3.242159861657e-02       1.170496279096e+04 
       3.257161850589e-02       1.165817363733e+04 
       3.272214286418e-02       1.161142094866e+04 
       3.287318513814e-02       1.156463094615e+04 
       3.302475921326e-02       1.151781193292e+04 
       3.317687943185e-02       1.147102311741e+04 
       3.332956061208e-02       1.142420485961e+04 
       3.348281806797e-02       1.137739269073e+04 
       3.363666763052e-02       1.133058073831e+04 
       3.379112566980e-02       1.128373560872e+04 
       3.394620911843e-02       1.123698389698e+04 
       3.410193549618e-02       1.119018063014e+04 
       3.425832293601e-02       1.114338668745e+04 
       3.441539021154e-02       1.109662070540e+04 
       3.457315676605e-02       1.104988019627e+04 
       3.473164274316e-02       1.100314198300e+04 
       3.489086901924e-02       1.095639082976e+04 
       3.505085723774e-02       1.090968397683e+04 
       3.521162984552e-02       1.086300765877e+04 
       3.537321013134e-02       1.081633925454e+04 
       3.553562226672e-02       1.076968986006e+04 
       3.569889134921e-02       1.072306775294e+04 
       3.586304344838e-02       1.067648776011e+04 
       3.602810565472e-02       1.062988971336e+04 
       3.619410613152e-02       1.058332011778e+04 
       3.636107417021e-02       1.053678045777e+04 
       3.652904024915e-02       1.049029709269e+04 
       3.669803609641e-02       1.044380836095e+04 
       3.686809475664e-02       1.039737233250e+04 
       3.703925066244e-02       1.035091629159e+04 
       3.721153971067e-02       1.030453374592e+04 
       3.738499934399e-02       1.025810733620e+04 
       3.755966863810e-02       1.021174947223e+04 
       3.773558839523e-02       1.016542895252e+04 
       3.791280124432e-02       1.011912007021e+04 
       3.809135174853e-02       1.007281803142e+04 
       3.827128652075e-02       1.002656170955e+04 
       3.845265434774e-02       9.980310473978e+03 
       3.863550632375e-02       9.934054688009e+03 
       3.881989599452e-02       9.887841872332e+03 
       3.900587951253e-02       9.841622100731e+03 
       3.919351580465e-02       9.795414718752e+03 
       3.938286675339e-02       9.749244061057e+03 
       3.957399739304e-02       9.703055501927e+03 
       3.976697612214e-02       9.656887233690e+03 
       3.996187493405e-02       9.610737132629e+03 
       4.015876966739e-02       9.564513398006e+03 
       4.035774027844e-02       9.518343716107e+03 
       4.055887113778e-02       9.472173220563e+03 
       4.076225135389e-02       9.425970825924e+03 
       4.096797512659e-02       9.379749043169e+03 
       4.117614213362e-02       9.333525606040e+03 
       4.138685795420e-02       9.287259839446e+03 
       4.160023453376e-02       9.240954310788e+03 
       4.181639069479e-02       9.194666910309e+03 
       4.203545269914e-02       9.148271318077e+03 
       4.225755486828e-02       9.101862360528e+03 
       4.248284026858e-02       9.055399235055e+03 
       4.271146146979e-02       9.008868608027e+03 
       4.294358138643e-02       8.962293267101e+03 
       4.317937421268e-02       8.915607349610e+03 
       4.341902646368e-02       8.868845466200e+03 
       4.366273813749e-02       8.822018240465e+03 
       4.391072401503e-02       8.775046879030e+03 
       4.416321511733e-02       8.727977495825e+03 
       4.442046034344e-02       8.680815111373e+03 
       4.468272831580e-02       8.633503287984e+03 
       4.495030946488e-02       8.586025340196e+03 
       4.522351839048e-02       8.538402314083e+03 
       4.550269654396e-02       8.490595093211e+03 
       4.578821528403e-02       8.442593429216e+03 
       4.608047936860e-02       8.394373024763e+03 
       4.637993095788e-02       8.345875305229e+03 
       4.668705421859e-02       8.297212375285e+03 
       4.700238063781e-02       8.248226155499e+03 
       4.732649517801e-02       8.198943323131e+03 
       4.766004343286e-02       8.149347158678e+03 
       4.800373997888e-02       8.099382281750e+03 
       4.835837816214e-02       8.049021763323e+03 
       4.872484161432e-02       7.998250175002e+03 
       4.910411786249e-02       7.947001931914e+03 
       4.949731448501e-02       7.895227522057e+03 
       4.990567837781e-02       7.842885437451e+03 
       5.033061883780e-02       7.789928159221e+03 
       5.077373535142e-02       7.736262187176e+03 
       5.123685120781e-02       7.681824946567e+03 
       5.172205434997e-02       7.626514228517e+03 
       5.223174725085e-02       7.570265262169e+03 
       5.276870806911e-02       7.512909078607e+03 
       5.333616591800e-02       7.454304156794e+03 
       5.393789377459e-02       7.394267778763e+03 
       5.457832334487e-02       7.332612308489e+03 
       5.526268700286e-02       7.269032373910e+03 
       5.599719252925e-02       7.203216740614e+03 
       5.678923631985e-02       7.134733172719e+03 
       5.764765903789e-02       7.063024218588e+03 
       5.858304242217e-02       6.987381237092e+03 
       5.960803353160e-02       6.906894940075e+03 
       6.073765683775e-02       6.820321242562e+03 
       6.198952559731e-02       6.725958830533e+03 
