# Matter power spectrum P(k) at redshift z=0
# for k=0.000782009 to 164.874 h/Mpc,
# number of wavenumbers equal to 514
#    1:k (h/Mpc)              2:P (Mpc/h)^3        
       7.820087430775e-04       1.738670718400e-04 
       6.176825158558e-03       1.269193142074e-03 
       1.871764959292e-02       3.683686760388e-03 
       3.155028051547e-02       6.076221499176e-03 
       4.440693703991e-02       8.420795375660e-03 
       5.727029127353e-02       1.072270915722e-02 
       7.013655254062e-02       1.298535736403e-02 
       8.300443200651e-02       1.521079626637e-02 
       9.587337638531e-02       1.740029016532e-02 
       1.087431113754e-01       1.955465975936e-02 
       1.216134873573e-01       2.167452634541e-02 
       1.344844172652e-01       2.376037526535e-02 
       1.473558482525e-01       2.581236684679e-02 
       1.602277475008e-01       2.783109815077e-02 
       1.731000945732e-01       2.981692688097e-02 
       1.859728770443e-01       3.177018125910e-02 
       1.988460878794e-01       3.369118436732e-02 
       2.117197237971e-01       3.558025383449e-02 
       2.245937842119e-01       3.743771551450e-02 
       2.374682705301e-01       3.926389433595e-02 
       2.503431856695e-01       4.105912543367e-02 
       2.632185337239e-01       4.282374762691e-02 
       2.760943197248e-01       4.455811057115e-02 
       2.889705494695e-01       4.626256952213e-02 
       3.018472293940e-01       4.793748965002e-02 
       3.147243664797e-01       4.958322655051e-02 
       3.276019681830e-01       5.120015927640e-02 
       3.404800423819e-01       5.278863939573e-02 
       3.533585973356e-01       5.434922558142e-02 
       3.662376416537e-01       5.588203085928e-02 
       3.791171842722e-01       5.738736930888e-02 
       3.919972344362e-01       5.886570588721e-02 
       4.048778016852e-01       6.031743232021e-02 
       4.177588958438e-01       6.174287713320e-02 
       4.306405270134e-01       6.314241422421e-02 
       4.435227055673e-01       6.451635695279e-02 
       4.564054421467e-01       6.586506218932e-02 
       4.692887476588e-01       6.718886600441e-02 
       4.821726332756e-01       6.848811863186e-02 
       4.950571104342e-01       6.976309128265e-02 
       5.079421908369e-01       7.101416544869e-02 
       5.208278864536e-01       7.224166784621e-02 
       5.337142095230e-01       7.344588486007e-02 
       5.466011725560e-01       7.462714710178e-02 
       5.594887883384e-01       7.578579293467e-02 
       5.723770699342e-01       7.692209607187e-02 
       5.852660306899e-01       7.803638718580e-02 
       5.981556842382e-01       7.912896627342e-02 
       6.110460445029e-01       8.020011321386e-02 
       6.239371257032e-01       8.125012444809e-02 
       6.368289423590e-01       8.227927986508e-02 
       6.497215092957e-01       8.328783177070e-02 
       6.626148416503e-01       8.427610673961e-02 
       6.755089548765e-01       8.524436276488e-02 
       6.884038647505e-01       8.619284087320e-02 
       7.012995873775e-01       8.712180071661e-02 
       7.141961391978e-01       8.803152218433e-02 
       7.270935369930e-01       8.892221340082e-02 
       7.399917978927e-01       8.979417399595e-02 
       7.528909393816e-01       9.064765917659e-02 
       7.657909793061e-01       9.148285949007e-02 
       7.786919358817e-01       9.230006406474e-02 
       7.915938277005e-01       9.309948989286e-02 
       8.044966737383e-01       9.388132643214e-02 
       8.174004933628e-01       9.464585173778e-02 
       8.303053063412e-01       9.539327906572e-02 
       8.432111328484e-01       9.612386159733e-02 
       8.561179934753e-01       9.683778510717e-02 
       8.690259092375e-01       9.753522999129e-02 
       8.819349015837e-01       9.821644464473e-02 
       8.948449924045e-01       9.888163403355e-02 
       9.077562040418e-01       9.953093750704e-02 
       9.206685592981e-01       1.001647051293e-01 
       9.335820814456e-01       1.007829982778e-01 
       9.464967942363e-01       1.013860494474e-01 
       9.594127219119e-01       1.019740380333e-01 
       9.723298892138e-01       1.025472254435e-01 
       9.852483213935e-01       1.031057154227e-01 
       9.981680442232e-01       1.036496987943e-01 
       1.011089084007e+00       1.041793692777e-01 
       1.024011467591e+00       1.046949468760e-01 
       1.036935222377e+00       1.051965645550e-01 
       1.049860376330e+00       1.056844527175e-01 
       1.062786957994e+00       1.061586620041e-01 
       1.075714996503e+00       1.066195096523e-01 
       1.088644521591e+00       1.070670604393e-01 
       1.101575563609e+00       1.075015508590e-01 
       1.114508153533e+00       1.079230578609e-01 
       1.127442322981e+00       1.083318170871e-01 
       1.140378104227e+00       1.087279445473e-01 
       1.153315530209e+00       1.091116570236e-01 
       1.166254634550e+00       1.094830115522e-01 
       1.179195451569e+00       1.098422240647e-01 
       1.192138016295e+00       1.101894407600e-01 
       1.205082364486e+00       1.105247659453e-01 
       1.218028532640e+00       1.108483908146e-01 
       1.230976558011e+00       1.111605232481e-01 
       1.243926478630e+00       1.114611829012e-01 
       1.256878333315e+00       1.117505551981e-01 
       1.269832161693e+00       1.120288191422e-01 
       1.282788004215e+00       1.122960697089e-01 
       1.295745902171e+00       1.125525158223e-01 
       1.308705897715e+00       1.127982000250e-01 
       1.321668033875e+00       1.130333153807e-01 
       1.334632354580e+00       1.132580132447e-01 
       1.347598904670e+00       1.134723761950e-01 
       1.360567729927e+00       1.136765367812e-01 
       1.373538877083e+00       1.138706214493e-01 
       1.386512393851e+00       1.140547872304e-01 
       1.399488328940e+00       1.142291860724e-01 
       1.412466732077e+00       1.143938606126e-01 
       1.425447654032e+00       1.145489813628e-01 
       1.438431146639e+00       1.146946788044e-01 
       1.451417262817e+00       1.148310538667e-01 
       1.464406056597e+00       1.149582330101e-01 
       1.477397583142e+00       1.150763140604e-01 
       1.490391898779e+00       1.151854687003e-01 
       1.503389061014e+00       1.152857772114e-01 
       1.516389128568e+00       1.153773783986e-01 
       1.529392161396e+00       1.154604117732e-01 
       1.542398220719e+00       1.155349635037e-01 
       1.555407369046e+00       1.156011692340e-01 
       1.568419670212e+00       1.156591036090e-01 
       1.581435189395e+00       1.157089466225e-01 
       1.594453993155e+00       1.157506550432e-01 
       1.607476149462e+00       1.157845023429e-01 
       1.620501727725e+00       1.158104865992e-01 
       1.633530798826e+00       1.158287277437e-01 
       1.646563435151e+00       1.158394140837e-01 
       1.659599710626e+00       1.158425485121e-01 
       1.672639700749e+00       1.158382859857e-01 
       1.685683482627e+00       1.158267790311e-01 
       1.698731135008e+00       1.158079985445e-01 
       1.711782738325e+00       1.157821977976e-01 
       1.724838374726e+00       1.157493974901e-01 
       1.737898128118e+00       1.157097015957e-01 
       1.750962084203e+00       1.156631790740e-01 
       1.764030330522e+00       1.156100835655e-01 
       1.777102956494e+00       1.155503038911e-01 
       1.790180053459e+00       1.154840112129e-01 
       1.803261714724e+00       1.154113732732e-01 
       1.816348035603e+00       1.153323979566e-01 
       1.829439113469e+00       1.152472227921e-01 
       1.842535047796e+00       1.151560083774e-01 
       1.855635940208e+00       1.150586630416e-01 
       1.868741894533e+00       1.149555006910e-01 
       1.881853016846e+00       1.148464169342e-01 
       1.894969415530e+00       1.147316427135e-01 
       1.908091201320e+00       1.146112512467e-01 
       1.921218487365e+00       1.144852494215e-01 
       1.934351389281e+00       1.143537257923e-01 
       1.947490025209e+00       1.142169338349e-01 
       1.960634515874e+00       1.140747536522e-01 
       1.973784984646e+00       1.139274166815e-01 
       1.986941557601e+00       1.137749332556e-01 
       2.000104363588e+00       1.136173117547e-01 
       2.013273534290e+00       1.134549193625e-01 
       2.026449204296e+00       1.132875991564e-01 
       2.039631511165e+00       1.131153629106e-01 
       2.052820595504e+00       1.129386101659e-01 
       2.066016601032e+00       1.127571065712e-01 
       2.079219674664e+00       1.125712342155e-01 
       2.092429966579e+00       1.123806760805e-01 
       2.105647630307e+00       1.121858333254e-01 
       2.118872822806e+00       1.119867072413e-01 
       2.132105704543e+00       1.117832660650e-01 
       2.145346439587e+00       1.115757511311e-01 
       2.158595195690e+00       1.113642611667e-01 
       2.171852144382e+00       1.111485387688e-01 
       2.185117461060e+00       1.109291081110e-01 
       2.198391325090e+00       1.107056980704e-01 
       2.211673919898e+00       1.104787467245e-01 
       2.224965433077e+00       1.102477538402e-01 
       2.238266056489e+00       1.100133911757e-01 
       2.251575986373e+00       1.097753621316e-01 
       2.264895423453e+00       1.095340109251e-01 
       2.278224573055e+00       1.092891876113e-01 
       2.291563645222e+00       1.090409549332e-01 
       2.304912854833e+00       1.087894258415e-01 
       2.318272421731e+00       1.085353786852e-01 
       2.331642570845e+00       1.082769936697e-01 
       2.345023532326e+00       1.080161792351e-01 
       2.358415541682e+00       1.077524608852e-01 
       2.371818839914e+00       1.074856280438e-01 
       2.385233673663e+00       1.072159901192e-01 
       2.398660295358e+00       1.069436142635e-01 
       2.412098963366e+00       1.066683065002e-01 
       2.425549942154e+00       1.063908021533e-01 
       2.439013502447e+00       1.061099738157e-01 
       2.452489921398e+00       1.058270695634e-01 
       2.465979482760e+00       1.055416102484e-01 
       2.479482477066e+00       1.052537566068e-01 
       2.492999201809e+00       1.049631808663e-01 
       2.506529961637e+00       1.046707089011e-01 
       2.520075068546e+00       1.043759235957e-01 
       2.533634842082e+00       1.040788212098e-01 
       2.547209609554e+00       1.037797794637e-01 
       2.560799706247e+00       1.034785459987e-01 
       2.574405475643e+00       1.031753849083e-01 
       2.588027269660e+00       1.028701925426e-01 
       2.601665448881e+00       1.025629156745e-01 
       2.615320382809e+00       1.022539425646e-01 
       2.628992450115e+00       1.019432093750e-01 
       2.642682038908e+00       1.016309886196e-01 
       2.656389547004e+00       1.013164820024e-01 
       2.670115382211e+00       1.010007823900e-01 
       2.683859962622e+00       1.006831001963e-01 
       2.697623716915e+00       1.003639683788e-01 
       2.711407084669e+00       1.000436441394e-01 
       2.725210516691e+00       9.972163504140e-02 
       2.739034475348e+00       9.939811830360e-02 
       2.752879434922e+00       9.907317731689e-02 
       2.766745881966e+00       9.874738264440e-02 
       2.780634315685e+00       9.842011840592e-02 
       2.794545248321e+00       9.809160153218e-02 
       2.808479205562e+00       9.776180040788e-02 
       2.822436726957e+00       9.743104795316e-02 
       2.836418366351e+00       9.709912095125e-02 
       2.850424692342e+00       9.676639404584e-02 
       2.864456288749e+00       9.643218129738e-02 
       2.878513755095e+00       9.609717721263e-02 
       2.892597707123e+00       9.576126035369e-02 
       2.906708777318e+00       9.542455714026e-02 
       2.920847615454e+00       9.508712104367e-02 
       2.935014889172e+00       9.474859244437e-02 
       2.949211284568e+00       9.440942920247e-02 
       2.963437506812e+00       9.406959724355e-02 
       2.977694280796e+00       9.372900756396e-02 
       2.991982351802e+00       9.338774688943e-02 
       3.006302486200e+00       9.304577443788e-02 
       3.020655472180e+00       9.270316078988e-02 
       3.035042120512e+00       9.236015026675e-02 
       3.049463265338e+00       9.201658596821e-02 
       3.063919764998e+00       9.167245662864e-02 
       3.078412502899e+00       9.132803749785e-02 
       3.092942388411e+00       9.098297323820e-02 
       3.107510357817e+00       9.063735430570e-02 
       3.122117375291e+00       9.029185412927e-02 
       3.136764433937e+00       8.994577301388e-02 
       3.151452556858e+00       8.959922590065e-02 
       3.166182798290e+00       8.925232531146e-02 
       3.180956244782e+00       8.890544896917e-02 
       3.195774016430e+00       8.855825652722e-02 
       3.210637268177e+00       8.821065475344e-02 
       3.225547191168e+00       8.786302537212e-02 
       3.240505014177e+00       8.751503753266e-02 
       3.255512005100e+00       8.716705219133e-02 
       3.270569472526e+00       8.681903380754e-02 
       3.285678767383e+00       8.647106083482e-02 
       3.300841284672e+00       8.612247466182e-02 
       3.316058465285e+00       8.577395356565e-02 
       3.331331797919e+00       8.542572483301e-02 
       3.346662821092e+00       8.507744634278e-02 
       3.362053125264e+00       8.472853536716e-02 
       3.377504355071e+00       8.438006352402e-02 
       3.393018211677e+00       8.403187394485e-02 
       3.408596455261e+00       8.368321372771e-02 
       3.424240907636e+00       8.333495766547e-02 
       3.439953455012e+00       8.298662111668e-02 
       3.455736050924e+00       8.263832626268e-02 
       3.471590719316e+00       8.229005851147e-02 
       3.487519557807e+00       8.194195300221e-02 
       3.503524741152e+00       8.159406213446e-02 
       3.519608524901e+00       8.124613132280e-02 
       3.535773249277e+00       8.089844392195e-02 
       3.552021343292e+00       8.055094856296e-02 
       3.568355329109e+00       8.020342277514e-02 
       3.584777826680e+00       7.985599811929e-02 
       3.601291558668e+00       7.950871456436e-02 
       3.617899355684e+00       7.916180794145e-02 
       3.634604161863e+00       7.881493035312e-02 
       3.651409040793e+00       7.846831374617e-02 
       3.668317181841e+00       7.812155805914e-02 
       3.685331906903e+00       7.777525892785e-02 
       3.702456677603e+00       7.742887010502e-02 
       3.719695102983e+00       7.708324729108e-02 
       3.737050947737e+00       7.673710069040e-02 
       3.754528141011e+00       7.639145053970e-02 
       3.772130785834e+00       7.604584152471e-02 
       3.789863169236e+00       7.570036351367e-02 
       3.807729773093e+00       7.535505148081e-02 
       3.825735285791e+00       7.500969659947e-02 
       3.843884614760e+00       7.466485968468e-02 
       3.862182899970e+00       7.432007824157e-02 
       3.880635528468e+00       7.397498150245e-02 
       3.899248150065e+00       7.363017081749e-02 
       3.918026694278e+00       7.328526732393e-02 
       3.936977388635e+00       7.294073791520e-02 
       3.956106778503e+00       7.259612351773e-02 
       3.975421748565e+00       7.225148926629e-02 
       3.994929546132e+00       7.190680429828e-02 
       4.014637806464e+00       7.156215649511e-02 
       4.034554580320e+00       7.121770739912e-02 
       4.054688363968e+00       7.087273008854e-02 
       4.075048131927e+00       7.052776224519e-02 
       4.095643372730e+00       7.018275701591e-02 
       4.116484128063e+00       6.983726306643e-02 
       4.137581035639e+00       6.949219448591e-02 
       4.158945376269e+00       6.914627622024e-02 
       4.180589125601e+00       6.880055494972e-02 
       4.202525011095e+00       6.845408432897e-02 
       4.224766574882e+00       6.810740864612e-02 
       4.247328243229e+00       6.776035820359e-02 
       4.270225403456e+00       6.741292073742e-02 
       4.293474489265e+00       6.706481209393e-02 
       4.317093075603e+00       6.671602880384e-02 
       4.341099984334e+00       6.636670735761e-02 
       4.365515402212e+00       6.601668151658e-02 
       4.390361012888e+00       6.566586979789e-02 
       4.415660144958e+00       6.531412728243e-02 
       4.441437938417e+00       6.496156444349e-02 
       4.467721532264e+00       6.460770842052e-02 
       4.494540276520e+00       6.425294635267e-02 
       4.521925972474e+00       6.389663268177e-02 
       4.549913145702e+00       6.353924563578e-02 
       4.578539357232e+00       6.318012607414e-02 
       4.607845559293e+00       6.281960275970e-02 
       4.637876503324e+00       6.245717455699e-02 
       4.668681209488e+00       6.209293281531e-02 
       4.700313508830e+00       6.172653066548e-02 
       4.732832671585e+00       6.135778129927e-02 
       4.766304138061e+00       6.098666319042e-02 
       4.800800372139e+00       6.061265968233e-02 
       4.836401862037e+00       6.023584699612e-02 
       4.873198298637e+00       5.985561291874e-02 
       4.911289968937e+00       5.947189849159e-02 
       4.950789411273e+00       5.908414217775e-02 
       4.991823390553e+00       5.869215708586e-02 
       5.034535266468e+00       5.829535950202e-02 
       5.079087846412e+00       5.789312503671e-02 
       5.125666838797e+00       5.748500180121e-02 
       5.174485052861e+00       5.707040367665e-02 
       5.225787529673e+00       5.664831313076e-02 
       5.279857837294e+00       5.621785806353e-02 
       5.337025822604e+00       5.577799904577e-02 
       5.397677183230e+00       5.532729875610e-02 
       5.462265302767e+00       5.486383976362e-02 
       5.531325871707e+00       5.438579230929e-02 
       5.605494871547e+00       5.389051514980e-02 
       5.685530478296e+00       5.337478161186e-02 
       5.772339236023e+00       5.283425235386e-02 
       5.867006249793e+00       5.226310570828e-02 
       5.970827758345e+00       5.165463574184e-02 
       6.085341596914e+00       5.099891969348e-02 
       6.212345735920e+00       5.028270302288e-02 
       6.353886163460e+00       4.948925953763e-02 
       6.512182846720e+00       4.859620591724e-02 
       6.689450806195e+00       4.757551716080e-02 
       6.887577344192e+00       4.639496813145e-02 
       7.107664005977e+00       4.502198162588e-02 
       7.349552156362e+00       4.343224799117e-02 
       7.611573113295e+00       4.162038709905e-02 
       7.890746643506e+00       3.961022183275e-02 
       8.183403446522e+00       3.745596238101e-02 
       8.485921183349e+00       3.523500182503e-02 
       8.795240537293e+00       3.303405443389e-02 
       9.109051005294e+00       3.093499108612e-02 
       9.425738056197e+00       2.900409060682e-02 
       9.744230674120e+00       2.728657898519e-02 
       1.006384195927e+01       2.580485858484e-02 
       1.038414068317e+01       2.456019229661e-02 
       1.070485970962e+01       2.353621674251e-02 
       1.102583490936e+01       2.270300885741e-02 
       1.134696594810e+01       2.202136818414e-02 
       1.166819167872e+01       2.144710381935e-02 
       1.198947490586e+01       2.093520984340e-02 
       1.231079302966e+01       2.044377395838e-02 
       1.263213232793e+01       1.993746836889e-02 
       1.295348447235e+01       1.939042399902e-02 
       1.327484440954e+01       1.878802736040e-02 
       1.359620907375e+01       1.812735674224e-02 
       1.391757660522e+01       1.741581973793e-02 
       1.423894587586e+01       1.666904657020e-02 
       1.456031620141e+01       1.590801535137e-02 
       1.488168716682e+01       1.515543985894e-02 
       1.520305852036e+01       1.443322827055e-02 
       1.552443010933e+01       1.376029964878e-02 
       1.584580184111e+01       1.315018622709e-02 
       1.616717365954e+01       1.261094517167e-02 
       1.648854553053e+01       1.214487290021e-02 
       1.680991743343e+01       1.174884808124e-02 
