# dimensionless total lensed [l(l+1)/2pi] C_l's
# for l=2 to 2500, i.e. number of multipoles equal to 2499
#
# -> if you prefer output in CAMB/HealPix/LensPix units/order, set 'format' to 'camb' in input file
# -> if you don't want to see such a header, set 'headers' to 'no' in input file
# -> for CMB lensing (phi), these are C_l^phi-phi for the lensing potential.
#    Remember the conversion factors:
#    C_l^dd (deflection) = l(l+1) C_l^phi-phi
#    C_l^gg (shear/convergence) = 1/4 (l(l+1))^2 C_l^phi-phi
#
# 1:l     2:TT                     3:EE                     4:TE                     5:BB                     6:phiphi                 7:TPhi                   8:Ephi               
    2       5.905331783542e-10       3.381236110182e-15       8.130422063655e-13       3.627783818138e-19       2.301580174302e-08      -2.963466007461e-09      -2.237015123889e-12 
    3       4.279972538012e-10       6.771554988011e-15       8.089412316043e-13       7.259349242526e-19       1.455530589726e-08      -1.922648837399e-09      -1.868690099398e-12 
    4       3.410753614985e-10       1.031506701852e-14       7.849660864575e-13       1.210722647855e-18       1.011991162937e-08      -1.378364684847e-09      -1.604093905154e-12 
    5       2.874366884340e-10       1.301954170372e-14       7.424853437912e-13       1.817620227104e-18       7.502870128236e-09      -1.051092645235e-09      -1.373800659100e-12 
    6       2.511133803980e-10       1.427971130056e-14       6.842864085228e-13       2.547204485263e-18       5.826094479862e-09      -8.350956986092e-10      -1.155351538535e-12 
    7       2.250054168206e-10       1.400478418140e-14       6.176894564266e-13       3.400136806580e-18       4.685032118569e-09      -6.833925294604e-10      -9.497877746520e-13 
    8       2.055155929042e-10       1.247896288927e-14       5.482753203420e-13       4.377147570702e-18       3.868640751989e-09      -5.718132715737e-10      -7.600219854543e-13 
    9       1.905440106458e-10       1.019133214034e-14       4.800853207073e-13       5.479018988764e-18       3.258481873798e-09      -4.867624951933e-10      -5.884250805633e-13 
   10       1.788363481645e-10       7.668545620180e-15       4.157757475474e-13       6.706566763991e-18       2.785120451538e-09      -4.200427212154e-10      -4.366531623251e-13 
   11       1.695619755120e-10       5.347583660607e-15       3.569392332745e-13       8.060621034144e-18       2.075141828760e-09      -3.473654921918e-10      -3.064075275023e-13 
   12       1.621029599815e-10       3.506433526164e-15       3.046322199101e-13       9.542007077671e-18       1.794996940103e-09      -3.047060310865e-10      -1.971790278286e-13 
   13       1.561073012553e-10       2.250656388627e-15       2.594757671690e-13       1.115152627906e-17       1.567586319058e-09      -2.693660932091e-10      -1.079964825134e-13 
   14       1.513006367977e-10       1.542076464661e-15       2.217824727493e-13       1.288993785092e-17       1.380357049064e-09      -2.399142157714e-10      -3.882012285785e-14 
   15       1.473975715445e-10       1.250843834090e-15       1.916837060356e-13       1.475794180030e-17       1.224309915426e-09      -2.148963804123e-10       1.242411715284e-14 
   16       1.442509109776e-10       1.212388344188e-15       1.689918867168e-13       1.675616360385e-17       1.092846412328e-09      -1.935755218036e-10       4.687013639914e-14 
   17       1.417487609684e-10       1.275007860999e-15       1.532154549745e-13       1.888514102183e-17       9.810444620958e-10      -1.750904598831e-10       6.710118165595e-14 
   18       1.397309321236e-10       1.325750251550e-15       1.436944079280e-13       2.114531257905e-17       8.846959850754e-10      -1.590663050431e-10       7.524147455057e-14 
   19       1.381710316106e-10       1.322969288248e-15       1.398592202203e-13       2.353701401452e-17       8.023023926156e-10      -1.452573752425e-10       7.338247242192e-14 
   20       1.369678702997e-10       1.249093660546e-15       1.405549465119e-13       2.606046385509e-17       7.302036432617e-10      -1.329921995321e-10       6.470530779998e-14 
   21       1.360856768873e-10       1.129783378691e-15       1.448998786768e-13       2.871577632821e-17       6.671199787112e-10      -1.221023250163e-10       5.126230876648e-14 
   22       1.354489726406e-10       1.010500102143e-15       1.517896447903e-13       3.150294579460e-17       6.114842597740e-10      -1.124097652587e-10       3.514109814374e-14 
   23       1.350468015314e-10       9.225313467987e-16       1.603888621725e-13       3.442187235699e-17       5.624357004745e-10      -1.038012577611e-10       1.803819149268e-14 
   24       1.348473779294e-10       8.909512737238e-16       1.697918048072e-13       3.747234606440e-17       5.187185919904e-10      -9.607568944956e-11       1.638676228663e-15 
   25       1.348318895324e-10       9.176855970848e-16       1.793498016718e-13       4.065408946987e-17       4.797561834743e-10      -8.912544757145e-11      -1.301935346601e-14 
   26       1.349603813633e-10       9.926227282038e-16       1.884539820321e-13       4.396673603939e-17       4.447901547945e-10      -8.281063564304e-11      -2.514343480932e-14 
   27       1.352284227226e-10       1.095784809080e-15       1.967821290515e-13       4.740987613252e-17       4.133574066770e-10      -7.708506492877e-11      -3.433161952115e-14 
   28       1.356246194286e-10       1.203143590255e-15       2.041140475212e-13       5.098304607279e-17       3.848699191915e-10      -7.189055458948e-11      -4.041003376789e-14 
   29       1.361476755509e-10       1.305146656488e-15       2.103836584312e-13       5.468581667921e-17       3.591558926924e-10      -6.719733994516e-11      -4.344036473855e-14 
   30       1.367769940928e-10       1.395687616481e-15       2.155955610984e-13       5.851773109862e-17       3.359123239664e-10      -6.293499023422e-11      -4.369801948297e-14 
   31       1.374753088172e-10       1.470414963911e-15       2.198041961560e-13       6.247831771904e-17       3.146316530758e-10      -5.899737119604e-11      -4.162336540461e-14 
   32       1.382451016121e-10       1.536982029841e-15       2.231585515640e-13       6.656722550487e-17       2.951878938087e-10      -5.536947475230e-11      -3.765941207828e-14 
   33       1.390895059377e-10       1.608963512963e-15       2.258820256849e-13       7.078414668850e-17       2.774295192091e-10      -5.204104623503e-11      -3.238019926871e-14 
   34       1.400010026186e-10       1.700649297547e-15       2.282322274369e-13       7.512881874844e-17       2.610906102914e-10      -4.898062865877e-11      -2.645759453042e-14 
   35       1.409792419493e-10       1.817244615210e-15       2.303843680806e-13       7.960113425030e-17       2.460771572527e-10      -4.617061939783e-11      -2.034920263128e-14 
   36       1.420169957241e-10       1.961328777319e-15       2.325110943527e-13       8.420108219713e-17       2.322580856822e-10      -4.358026214045e-11      -1.451461328218e-14 
   37       1.431005028184e-10       2.134608729443e-15       2.347817852686e-13       8.892874473814e-17       2.194410589686e-10      -4.116763376822e-11      -9.421205298891e-15 
   38       1.442312677439e-10       2.335144402320e-15       2.372495210607e-13       9.378435685247e-17       2.075870332992e-10      -3.892575546530e-11      -5.262830029227e-15 
   39       1.454098416383e-10       2.559099271923e-15       2.399262562448e-13       9.876828194436e-17       1.966533261717e-10      -3.684923016319e-11      -2.149937842780e-15 
   40       1.466290045204e-10       2.801371892287e-15       2.428114521744e-13       1.038810082324e-16       1.865285488367e-10      -3.492053282197e-11      -1.831226874278e-16 
   41       1.478779802063e-10       3.056986762233e-15       2.458761223886e-13       1.091231409389e-16       1.770702589104e-10      -3.311633413339e-11       5.835414340022e-16 
   42       1.491585761317e-10       3.326019666160e-15       2.490118171249e-13       1.144953524894e-16       1.682469824774e-10      -3.143151072707e-11       2.634500854423e-16 
   43       1.504730058687e-10       3.610129926994e-15       2.520628645356e-13       1.199984324234e-16       1.600323966912e-10      -2.986115637717e-11      -9.417307478232e-16 
   44       1.518189430733e-10       3.911236013686e-15       2.548373505237e-13       1.256333118413e-16       1.523628034933e-10      -2.839331855208e-11      -2.770151535002e-15 
   45       1.531919455482e-10       4.230981268473e-15       2.571315687522e-13       1.314009929318e-16       1.451591979185e-10      -2.701314750746e-11      -4.937555056389e-15 
   46       1.545945937538e-10       4.568905310989e-15       2.588175018692e-13       1.373022923973e-16       1.384083139418e-10      -2.571813817064e-11      -7.273123811481e-15 
   47       1.560293609673e-10       4.923751441916e-15       2.597775851797e-13       1.433380357830e-16       1.321007743690e-10      -2.450649543814e-11      -9.617711079749e-15 
   48       1.574957467581e-10       5.293952220444e-15       2.598794917776e-13       1.495091336410e-16       1.262066883211e-10      -2.337254280424e-11      -1.178434218721e-14 
   49       1.589900158230e-10       5.677612814620e-15       2.589753752392e-13       1.558165854830e-16       1.206741333605e-10      -2.230643524743e-11      -1.355676978767e-14 
   50       1.605071659368e-10       6.073103042495e-15       2.569332039020e-13       1.622613629163e-16       1.154444849848e-10      -2.129711276613e-11      -1.473759319039e-14 
   51       1.620480674529e-10       6.481061575938e-15       2.537425476238e-13       1.688440124838e-16       1.105068320143e-10      -2.034277222090e-11      -1.531136627555e-14 
   52       1.636138103000e-10       6.902906975344e-15       2.494361965917e-13       1.755649518514e-16       1.058557079080e-10      -1.944274166200e-11      -1.532326609368e-14 
   53       1.652034916851e-10       7.340288256510e-15       2.440613144384e-13       1.824245795114e-16       1.014748264877e-10      -1.859435669461e-11      -1.483426502863e-14 
   54       1.668140598287e-10       7.795096885255e-15       2.376801911268e-13       1.894232730491e-16       9.733635688137e-11      -1.779282586635e-11      -1.392201850453e-14 
   55       1.684418799517e-10       8.269181354991e-15       2.303608350676e-13       1.965612947405e-16       9.340924492595e-11      -1.703270976745e-11      -1.267662733112e-14 
   56       1.700882457873e-10       8.763380408881e-15       2.221442878415e-13       2.038384848522e-16       8.968825918787e-11      -1.631309699954e-11      -1.118465831169e-14 
   57       1.717549635365e-10       9.278270658832e-15       2.130705084894e-13       2.112544891154e-16       8.617089060391e-11      -1.563347824441e-11      -9.542708899605e-15 
   58       1.734426623498e-10       9.814443358540e-15       2.031881721205e-13       2.188088394927e-16       8.284857372566e-11      -1.499217502825e-11      -7.862857808239e-15 
   59       1.751507051636e-10       1.037250481043e-14       1.925550269228e-13       2.265009488351e-16       7.970631412223e-11      -1.438626798117e-11      -6.273353028567e-15 
   60       1.768770995348e-10       1.095307677261e-14       1.812382511743e-13       2.343301055382e-16       7.672231578310e-11      -1.381152509667e-11      -4.919299846683e-15 
   61       1.786195581610e-10       1.155666745197e-14       1.692947390230e-13       2.422955119879e-16       7.387395405356e-11      -1.326354120033e-11      -3.929824764864e-15 
   62       1.803791603243e-10       1.218324972501e-14       1.567059792188e-13       2.503964220690e-16       7.115810403754e-11      -1.274161753094e-11      -3.309398024051e-15 
   63       1.821573578139e-10       1.283258853545e-14       1.434291262139e-13       2.586320251805e-16       6.857473470844e-11      -1.224562963125e-11      -3.023227138553e-15 
   64       1.839548461212e-10       1.350435832793e-14       1.294155072559e-13       2.670014012944e-16       6.612079815172e-11      -1.177486033107e-11      -3.028260199127e-15 
   65       1.857715117540e-10       1.419813934875e-14       1.146103425539e-13       2.755035170018e-16       6.379005830664e-11      -1.132796643750e-11      -3.272810196289e-15 
   66       1.876063795502e-10       1.491341394665e-14       9.895246544444e-14       2.841372215589e-16       6.157291970799e-11      -1.090294542523e-11      -3.696179343617e-15 
   67       1.894575599924e-10       1.564956287350e-14       8.237404255782e-14       2.929012429327e-16       5.945625622786e-11      -1.049710212673e-11      -4.228283401066e-15 
   68       1.913230966371e-10       1.640601920144e-14       6.481104006138e-14       3.017943991507e-16       5.742688223824e-11      -1.010775571127e-11      -4.800171567447e-15 
   69       1.932038255673e-10       1.718277455896e-14       4.623771054733e-14       3.108162909153e-16       5.548316565582e-11      -9.734601427032e-12      -5.378901174620e-15 
   70       1.951010033554e-10       1.797996929735e-14       2.663862349756e-14       3.199667428728e-16       5.362547116171e-11      -9.377769769806e-12      -5.939087110675e-15 
   71       1.970154290791e-10       1.879774427618e-14       5.998532588232e-15       3.292456022524e-16       5.185264928108e-11      -9.037114417443e-12      -6.452536215991e-15 
   72       1.989474146569e-10       1.963624119517e-14      -1.569762930841e-14       3.386527404183e-16       5.016195828142e-11      -8.712197853324e-12      -6.888150265609e-15 
   73       2.008967551824e-10       2.049560292602e-14      -3.846475512228e-14       3.481880544222e-16       4.854898607084e-11      -8.402276989821e-12      -7.211828951594e-15 
   74       2.028626992597e-10       2.137597384426e-14      -6.231756858364e-14       3.578514685561e-16       4.700757209635e-11      -8.106288791759e-12      -7.386372865402e-15 
   75       2.048439193382e-10       2.227750016110e-14      -8.727062922134e-14       3.676429359043e-16       4.552972924211e-11      -7.822835899884e-12      -7.371386480245e-15 
   76       2.068391106721e-10       2.320028671460e-14      -1.133318269685e-13       3.775625347978e-16       4.410761356298e-11      -7.550531971399e-12      -7.136658640770e-15 
   77       2.088489798708e-10       2.414425751284e-14      -1.404814853741e-13       3.876107750500e-16       4.274002081164e-11      -7.289142184543e-12      -6.705335437327e-15 
   78       2.108745667600e-10       2.510927024489e-14      -1.686894391379e-13       3.977883506444e-16       4.142693819344e-11      -7.038625557524e-12      -6.118480429065e-15 
   79       2.129166314229e-10       2.609515701349e-14      -1.979210800230e-13       4.080960532293e-16       4.016756610319e-11      -6.798786794860e-12      -5.422472010322e-15 
   80       2.149756374256e-10       2.710172377417e-14      -2.281372283531e-13       4.185347756157e-16       3.896028201596e-11      -6.569269287130e-12      -4.669182760189e-15 
   81       2.170517350428e-10       2.812874977413e-14      -2.592940045100e-13       4.291055152763e-16       3.780260437788e-11      -6.349548110732e-12      -3.916158792087e-15 
   82       2.191447444830e-10       2.917598699137e-14      -2.913427004311e-13       4.398093778438e-16       3.669115649691e-11      -6.138923027637e-12      -3.226799103330e-15 
   83       2.212541391138e-10       3.024315957363e-14      -3.242296511063e-13       4.506475806094e-16       3.562163043372e-11      -5.936511485138e-12      -2.670534924698e-15 
   84       2.233793857272e-10       3.132998656974e-14      -3.579085489718e-13       4.616212168751e-16       3.458982958726e-11      -5.741462114089e-12      -2.306587960576e-15 
   85       2.255210668915e-10       3.243625568226e-14      -3.923800141714e-13       4.727304964621e-16       3.359507413594e-11      -5.553651223801e-12      -2.131758579864e-15 
   86       2.276799147713e-10       3.356176076971e-14      -4.276583791032e-13       4.839753851238e-16       3.263729656691e-11      -5.373089473490e-12      -2.124270597428e-15 
   87       2.298564600155e-10       3.470627947442e-14      -4.637599082079e-13       4.953558319840e-16       3.171599546134e-11      -5.199708394042e-12      -2.259327589731e-15 
   88       2.320510209835e-10       3.586957305293e-14      -5.007028785902e-13       5.068717690162e-16       3.083021751452e-11      -5.033357093625e-12      -2.509016259367e-15 
   89       2.342636929710e-10       3.705138620654e-14      -5.385076606408e-13       5.185231105231e-16       2.997853955599e-11      -4.873798963300e-12      -2.842209799602e-15 
   90       2.364943374362e-10       3.825144691172e-14      -5.771967986580e-13       5.303097526155e-16       2.915905056967e-11      -4.720708382630e-12      -3.224471258907e-15 
   91       2.387425712260e-10       3.946946625064e-14      -6.167950914688e-13       5.422315726915e-16       2.836933371402e-11      -4.573667425290e-12      -3.617956905500e-15 
   92       2.410077558019e-10       4.070513824162e-14      -6.573296730515e-13       5.542884289158e-16       2.760644834211e-11      -4.432162564682e-12      -3.981319591877e-15 
   93       2.432893146029e-10       4.195813949338e-14      -6.988228745113e-13       5.664800811354e-16       2.686762670670e-11      -4.295703165436e-12      -4.278374245569e-15 
   94       2.455877631373e-10       4.322812847638e-14      -7.412694068488e-13       5.788059411506e-16       2.615252299162e-11      -4.164204499123e-12      -4.505795074893e-15 
   95       2.479038146176e-10       4.451474582796e-14      -7.846558795720e-13       5.912652837468e-16       2.546127086582e-11      -4.037656511182e-12      -4.669424738673e-15 
   96       2.502380594426e-10       4.581761434918e-14      -8.289676953492e-13       6.038573203342e-16       2.479379087750e-11      -3.916005566882e-12      -4.775906712663e-15 
   97       2.525909589270e-10       4.713633883287e-14      -8.741890315410e-13       6.165811973485e-16       2.414978228469e-11      -3.799152828670e-12      -4.832708930357e-15 
   98       2.549628390321e-10       4.847050589172e-14      -9.203028217335e-13       6.294359946514e-16       2.352871488567e-11      -3.686952633519e-12      -4.848147423788e-15 
   99       2.573538840961e-10       4.981968378631e-14      -9.672907372703e-13       6.424207239317e-16       2.292982084949e-11      -3.579210870267e-12      -4.831409964343e-15 
  100       2.597641305647e-10       5.118342225319e-14      -1.015133168785e-12       6.555343271062e-16       2.235208654647e-11      -3.475683356969e-12      -4.792579703565e-15 
  101       2.621934607208e-10       5.256125233294e-14      -1.063809207734e-12       6.687756747201e-16       2.179424437867e-11      -3.376074218240e-12      -4.742658813956e-15 
  102       2.646415964154e-10       5.395268619821e-14      -1.113296627929e-12       6.821435643479e-16       2.125476461039e-11      -3.280034262600e-12      -4.693592129793e-15 
  103       2.671080927977e-10       5.535721698181e-14      -1.163571867068e-12       6.956367189946e-16       2.073184719869e-11      -3.187159359822e-12      -4.658290787925e-15 
  104       2.695925285325e-10       5.677430757343e-14      -1.214611248102e-12       7.092541424117e-16       2.022383036861e-11      -3.097078460326e-12      -4.647892440521e-15 
  105       2.720951192212e-10       5.820335565652e-14      -1.266394870994e-12       7.229962431557e-16       1.973049679262e-11      -3.009734689766e-12      -4.663069468914e-15 
  106       2.746161755419e-10       5.964372360592e-14      -1.318903214700e-12       7.368638600991e-16       1.925192944813e-11      -2.925139377905e-12      -4.701585243421e-15 
  107       2.771559101020e-10       6.109474880772e-14      -1.372115939495e-12       7.508579213695e-16       1.878810708244e-11      -2.843285177500e-12      -4.760946057549e-15 
