# dimensionless total [l(l+1)/2pi] C_l's
# for l=2 to 3000, i.e. number of multipoles equal to 2999
#
# -> if you prefer output in CAMB/HealPix/LensPix units/order, set 'format' to 'camb' in input file
# -> if you don't want to see such a header, set 'headers' to 'no' in input file
# -> for CMB lensing (phi), these are C_l^phi-phi for the lensing potential.
#    Remember the conversion factors:
#    C_l^dd (deflection) = l(l+1) C_l^phi-phi
#    C_l^gg (shear/convergence) = 1/4 (l(l+1))^2 C_l^phi-phi
#
# 1:l     2:TT                     3:EE                     4:TE                     5:BB                     6:phiphi                 7:TPhi                   8:Ephi               
    2       5.904848862215e-10       3.380900226581e-15       8.130161822313e-13       0.000000000000e+00       2.301238786399e-08      -2.963229501228e-09      -2.236967659726e-12 
    3       4.279602040326e-10       6.770926550170e-15       8.089216059553e-13       0.000000000000e+00       1.455390842720e-08      -1.922511992892e-09      -1.868678666695e-12 
    4       3.410450283791e-10       1.031397630693e-14       7.849482908692e-13       0.000000000000e+00       1.011923654157e-08      -1.378267386084e-09      -1.604088476515e-12 
    5       2.874106481619e-10       1.301781070400e-14       7.424691356820e-13       0.000000000000e+00       7.502452561363e-09      -1.051015546727e-09      -1.373795239380e-12 
    6       2.510900402498e-10       1.427717268035e-14       6.842720533229e-13       0.000000000000e+00       5.825765415246e-09      -8.350310050020e-10      -1.155344791431e-12 
    7       2.249833640989e-10       1.400129426581e-14       6.176771876620e-13       0.000000000000e+00       4.684740497223e-09      -6.833361013849e-10      -9.497792595669e-13 
    8       2.054938617307e-10       1.247440538487e-14       5.482652376515e-13       0.000000000000e+00       3.868382875500e-09      -5.717637106583e-10      -7.600117615803e-13 
    9       1.905220108280e-10       1.018561253984e-14       4.800774560801e-13       0.000000000000e+00       3.258268515917e-09      -4.867197028575e-10      -5.884134939537e-13 
   10       1.788137388792e-10       7.661579605627e-15       4.157703290766e-13       0.000000000000e+00       2.784959717179e-09      -4.200062928425e-10      -4.366407249597e-13 
   11       1.695379132587e-10       5.339284376809e-15       3.569367009310e-13       0.000000000000e+00       2.075050319515e-09      -3.473355039793e-10      -3.063947090793e-13 
   12       1.620768517485e-10       3.496701723162e-15       3.046328116430e-13       0.000000000000e+00       1.794918449617e-09      -3.046793642533e-10      -1.971661117683e-13 
   13       1.560787506512e-10       2.239375452187e-15       2.594795370329e-13       0.000000000000e+00       1.567518284262e-09      -2.693427256728e-10      -1.079857450141e-13 
   14       1.512690926981e-10       1.529112725950e-15       2.217898521413e-13       0.000000000000e+00       1.380297645600e-09      -2.398930079150e-10      -3.881003014250e-14 
   15       1.473627444843e-10       1.236051074928e-15       1.916952312267e-13       0.000000000000e+00       1.224257661064e-09      -2.148764767785e-10       1.243318141583e-14 
   16       1.442121232730e-10       1.195614261192e-15       1.690078283403e-13       0.000000000000e+00       1.092800181071e-09      -1.935571078467e-10       4.687674212422e-14 
   17       1.417059881245e-10       1.256100504050e-15       1.532359814268e-13       0.000000000000e+00       9.810033219397e-10      -1.750733510077e-10       6.710642899680e-14 
   18       1.396838579329e-10       1.304563393279e-15       1.437199369750e-13       0.000000000000e+00       8.846591854019e-10      -1.590506996364e-10       7.524479007385e-14 
   19       1.381192268051e-10       1.299363612635e-15       1.398900958513e-13       0.000000000000e+00       8.022692318064e-10      -1.452431755723e-10       7.338344836154e-14 
   20       1.369110124895e-10       1.222938260170e-15       1.405913192284e-13       0.000000000000e+00       7.301736220176e-10      -1.329787761088e-10       6.470475400924e-14 
   21       1.360236003486e-10       1.100951611691e-15       1.449419294815e-13       0.000000000000e+00       6.670926809498e-10      -1.220895201426e-10       5.126089100356e-14 
   22       1.353816474073e-10       9.788678694352e-16       1.518376464024e-13       0.000000000000e+00       6.114593616139e-10      -1.123981370503e-10       3.513888810439e-14 
   23       1.349740038525e-10       8.879735237015e-16       1.604429789410e-13       0.000000000000e+00       5.624129223431e-10      -1.037908890978e-10       1.803531240155e-14 
   24       1.347686485882e-10       8.533399992997e-16       1.698520667988e-13       0.000000000000e+00       5.186977079921e-10      -9.606591062310e-11       1.635493550354e-15 
   25       1.347470663450e-10       8.768903208977e-16       1.794163789645e-13       0.000000000000e+00       4.797369823607e-10      -8.911596919724e-11      -1.302245676150e-14 
   26       1.348697097025e-10       9.485103442762e-16       1.885272687660e-13       0.000000000000e+00       4.447724464555e-10      -8.280183056008e-11      -2.514615309920e-14 
   27       1.351319671350e-10       1.048222322656e-15       1.968625461361e-13       0.000000000000e+00       4.133410274966e-10      -7.707705662991e-11      -3.433375298330e-14 
   28       1.355221032280e-10       1.151999419413e-15       2.042019946508e-13       0.000000000000e+00       3.848547425045e-10      -7.188298305387e-11      -4.041149930086e-14 
   29       1.360388329922e-10       1.250292056961e-15       2.104795952354e-13       0.000000000000e+00       3.591418005155e-10      -6.718990935545e-11      -4.344110730888e-14 
   30       1.366617025086e-10       1.336997725007e-15       2.157000460004e-13       0.000000000000e+00       3.358992088978e-10      -6.292769135744e-11      -4.369798597770e-14 
   31       1.373535933902e-10       1.407769023534e-15       2.199179071192e-13       0.000000000000e+00       3.146194269343e-10      -5.899047432935e-11      -4.162252420881e-14 
   32       1.381170098544e-10       1.470261223602e-15       2.232823030526e-13       0.000000000000e+00       2.951764741034e-10      -5.536318280062e-11      -3.765784222346e-14 
   33       1.389550636067e-10       1.538050295098e-15       2.260167906313e-13       0.000000000000e+00       2.774188311919e-10      -5.203535765147e-11      -3.237813904073e-14 
   34       1.398602029014e-10       1.625426937320e-15       2.283791389764e-13       0.000000000000e+00       2.610805918894e-10      -4.897534417613e-11      -2.645541725522e-14 
   35       1.408320365566e-10       1.737595388840e-15       2.305446423343e-13       0.000000000000e+00       2.460677511275e-10      -4.616555687132e-11      -2.034719430423e-14 
   36       1.418632832506e-10       1.877132964051e-15       2.326860042485e-13       0.000000000000e+00       2.322492406302e-10      -4.357533700343e-11      -1.451287560868e-14 
   37       1.429401273546e-10       2.045744313249e-15       2.349726671781e-13       0.000000000000e+00       2.194327324518e-10      -4.116286056667e-11      -9.419659169143e-15 
   38       1.440640573465e-10       2.241488156866e-15       2.374578252336e-13       0.000000000000e+00       2.075791845880e-10      -3.892115967955e-11      -5.261396325629e-15 
   39       1.452356197462e-10       2.460526866801e-15       2.401535678690e-13       0.000000000000e+00       1.966459163224e-10      -3.684482106966e-11      -2.148598570775e-15 
   40       1.464475908632e-10       2.697757604612e-15       2.430595011573e-13       0.000000000000e+00       1.865215434929e-10      -3.491630011580e-11      -1.819358764242e-16 
   41       1.476891883416e-10       2.948203230714e-15       2.461467640399e-13       0.000000000000e+00       1.770636296090e-10      -3.311224990962e-11       5.844493781019e-16 
   42       1.489621992416e-10       3.211937834938e-15       2.493069133473e-13       0.000000000000e+00       1.682407023020e-10      -3.142755011765e-11       2.639708285489e-16 
   43       1.502688106897e-10       3.490618829479e-15       2.523842326837e-13       0.000000000000e+00       1.600264401453e-10      -2.985730526791e-11      -9.416557978858e-16 
   44       1.516066668825e-10       3.786162485700e-15       2.551867372430e-13       0.000000000000e+00       1.523571480724e-10      -2.838957644303e-11      -2.770520224336e-15 
   45       1.529713012075e-10       4.100209912004e-15       2.575106348806e-13       0.000000000000e+00       1.451538247100e-10      -2.700952682704e-11      -4.938303746729e-15 
   46       1.543653020594e-10       4.432299333883e-15       2.592278484650e-13       0.000000000000e+00       1.384032046729e-10      -2.571465125818e-11      -7.274162630646e-15 
   47       1.557911636681e-10       4.781172858405e-15       2.602207478353e-13       0.000000000000e+00       1.320959111529e-10      -2.450315048050e-11      -9.618932837191e-15 
   48       1.572484124645e-10       5.145261809574e-15       2.603569223087e-13       0.000000000000e+00       1.262020544642e-10      -2.336934314824e-11      -1.178562128732e-14 
   49       1.587333462752e-10       5.522670079204e-15       2.594884224138e-13       0.000000000000e+00       1.206697142286e-10      -2.230337867929e-11      -1.355796112191e-14 
   50       1.602409983242e-10       5.911766732537e-15       2.574830975328e-13       0.000000000000e+00       1.154402682731e-10      -2.129419183017e-11      -1.473854092891e-14 
   51       1.617722627875e-10       6.313192084818e-15       2.543303960551e-13       0.000000000000e+00       1.105028058968e-10      -2.033997806474e-11      -1.531194557430e-14 
   52       1.633282525718e-10       6.728367372505e-15       2.500629727683e-13       0.000000000000e+00       1.058518608345e-10      -1.944006525552e-11      -1.532340078398e-14 
   53       1.649080911480e-10       7.158944827063e-15       2.447278372297e-13       0.000000000000e+00       1.014711476152e-10      -1.859178907736e-11      -1.483393660204e-14 
   54       1.665087564424e-10       7.606819696655e-15       2.383871058956e-13       0.000000000000e+00       9.733283653339e-11      -1.779035841254e-11      -1.392127554338e-14 
   55       1.681266441628e-10       8.073844768759e-15       2.311086075181e-13       0.000000000000e+00       9.340587471322e-11      -1.703033449795e-11      -1.267558042926e-14 
   56       1.697630701922e-10       8.560863349442e-15       2.229332433048e-13       0.000000000000e+00       8.968503094522e-11      -1.631080700899e-11      -1.118342622382e-14 
   57       1.714198616710e-10       9.068457112315e-15       2.139008357346e-13       0.000000000000e+00       8.616779626682e-11      -1.563126807244e-11      -9.541402126712e-15 
   58       1.730976701453e-10       9.597222971670e-15       2.040599139124e-13       0.000000000000e+00       8.284560556313e-11      -1.499004102178e-11      -7.861575943110e-15 
   59       1.747958824490e-10       1.014777351329e-14       1.934680703704e-13       0.000000000000e+00       7.970346498392e-11      -1.438420867541e-11      -6.272181964215e-15 
   60       1.765125315864e-10       1.072073742529e-14       1.821923178698e-13       0.000000000000e+00       7.671957936076e-11      -1.380954161468e-11      -4.918308847801e-15 
   61       1.782453507893e-10       1.131662983527e-14       1.702894030515e-13       0.000000000000e+00       7.387132491388e-11      -1.326163686101e-11      -3.929064931480e-15 
   62       1.799954137747e-10       1.193542833729e-14       1.577407765661e-13       0.000000000000e+00       7.115557687690e-11      -1.273979483236e-11      -3.308905606920e-15 
   63       1.817641571595e-10       1.257690213104e-14       1.445035930129e-13       0.000000000000e+00       6.857230423566e-11      -1.224388929990e-11      -3.023022853675e-15 
   64       1.835522575888e-10       1.324073009413e-14       1.305291924306e-13       0.000000000000e+00       6.611845920469e-11      -1.177320112241e-11      -3.028347022432e-15 
   65       1.853595788900e-10       1.392649708515e-14       1.157628211448e-13       0.000000000000e+00       6.378780597558e-11      -1.132638492945e-11      -3.273171069837e-15 
   66       1.871851192275e-10       1.463369024674e-14       1.001433526156e-13       0.000000000000e+00       6.157074946523e-11      -1.090143580450e-11      -3.696774793318e-15 
   67       1.890269582565e-10       1.536169530858e-14       8.360300828438e-14       0.000000000000e+00       5.945416406422e-11      -1.049565596820e-11      -4.229049065915e-15 
   68       1.908831080263e-10       1.610994950469e-14       6.607780392843e-14       0.000000000000e+00       5.742486466903e-11      -1.010636242763e-11      -4.801021860694e-15 
   69       1.927543840248e-10       1.687844456944e-14       4.754197067572e-14       0.000000000000e+00       5.548121929014e-11      -9.733250902953e-12      -5.379752981311e-15 
   70       1.946420236218e-10       1.766731948866e-14       2.798003915759e-14       0.000000000000e+00       5.362359263137e-11      -9.376453243571e-12      -5.939867368413e-15 
   71       1.965468045952e-10       1.847671320630e-14       7.376726355859e-15       0.000000000000e+00       5.185083530167e-11      -9.035824734381e-12      -6.453183703857e-15 
   72       1.984690153983e-10       1.930676493296e-14      -1.428306924007e-14       0.000000000000e+00       5.016020571647e-11      -8.710929729488e-12      -6.888617463682e-15 
   73       2.004084254290e-10       2.015761445439e-14      -3.701427247620e-14       0.000000000000e+00       4.854729199904e-11      -8.401027285916e-12      -7.212083971084e-15 
   74       2.023642552970e-10       2.102940244004e-14      -6.083163637690e-14       0.000000000000e+00       4.700593388183e-11      -8.105056797318e-12      -7.386401449389e-15 
   75       2.043351470928e-10       2.192227075157e-14      -8.574974698788e-14       0.000000000000e+00       4.552814460786e-11      -7.821623627691e-12      -7.371194075027e-15 
   76       2.063197720252e-10       2.283632009552e-14      -1.117765513669e-13       0.000000000000e+00       4.410608057642e-11      -7.549343821073e-12      -7.136268691762e-15 
   77       2.083188469835e-10       2.377147338406e-14      -1.388925683225e-13       0.000000000000e+00       4.273853758165e-11      -7.287982558182e-12      -6.704775407685e-15 
   78       2.103334333972e-10       2.472758790222e-14      -1.670678778384e-13       0.000000000000e+00       4.142550280871e-11      -7.037498166715e-12      -6.117777974645e-15 
   79       2.123643160958e-10       2.570449519620e-14      -1.962681357102e-13       0.000000000000e+00       4.016617665789e-11      -6.797694572796e-12      -5.421654793955e-15 
   80       2.144119866473e-10       2.670200050722e-14      -2.264544455742e-13       0.000000000000e+00       3.895893663664e-11      -6.568214297828e-12      -4.668278257704e-15 
   81       2.164766266953e-10       2.771988220535e-14      -2.575832309382e-13       0.000000000000e+00       3.780130125153e-11      -6.348531455350e-12      -3.915194090069e-15 
   82       2.185580912978e-10       2.875789122335e-14      -2.896061072107e-13       0.000000000000e+00       3.668989390032e-11      -6.137944747893e-12      -3.225800688622e-15 
   83       2.206558922645e-10       2.981575049049e-14      -3.224697537310e-13       0.000000000000e+00       3.562040676397e-11      -5.935570463832e-12      -2.669528465648e-15 
   84       2.227695348215e-10       3.089317936311e-14      -3.561282104864e-13       0.000000000000e+00       3.458864336159e-11      -5.740556195782e-12      -2.305597983845e-15 
   85       2.248996282278e-10       3.198997280989e-14      -3.905823908099e-13       0.000000000000e+00       3.359392389108e-11      -5.552778044269e-12      -2.130807832123e-15 
   86       2.270469295824e-10       3.310593437681e-14      -4.258469148798e-13       0.000000000000e+00       3.263618084445e-11      -5.372246693133e-12      -2.123379654548e-15 
   87       2.292119963020e-10       3.424085221371e-14      -4.619383470916e-13       0.000000000000e+00       3.171491282408e-11      -5.198893719526e-12      -2.258514547771e-15 
   88       2.313951753979e-10       3.539449892818e-14      -4.988752769057e-13       0.000000000000e+00       3.082916656356e-11      -5.032568300366e-12      -2.508296415690e-15 
   89       2.335965927515e-10       3.656663143953e-14      -5.366783996960e-13       0.000000000000e+00       2.997751894848e-11      -4.873033918804e-12      -2.841595324115e-15 
   90       2.358161423906e-10       3.775699083274e-14      -5.753705975978e-13       0.000000000000e+00       2.915805903720e-11      -4.719965070682e-12      -3.223970855425e-15 
   91       2.380534757660e-10       3.896530221239e-14      -6.149770203559e-13       0.000000000000e+00       2.836837008170e-11      -4.572943970995e-12      -3.617575463239e-15 
   92       2.403079910272e-10       4.019127455661e-14      -6.555251661730e-13       0.000000000000e+00       2.760551154836e-11      -4.431457260350e-12      -3.981057827068e-15 
   93       2.425791407286e-10       4.143459808626e-14      -6.970376944408e-13       0.000000000000e+00       2.686671579767e-11      -4.295014480201e-12      -4.278228946027e-15 
   94       2.448674311779e-10       4.269493623712e-14      -7.395094518105e-13       0.000000000000e+00       2.615163703380e-11      -4.163531035092e-12      -4.505761278620e-15 
   95       2.471735542620e-10       4.397193220466e-14      -7.829271242440e-13       0.000000000000e+00       2.546040892931e-11      -4.036997006541e-12      -4.669496252399e-15 
   96       2.494980761416e-10       4.526521114346e-14      -8.272761785923e-13       0.000000000000e+00       2.479295204461e-11      -3.915358916021e-12      -4.776076042040e-15 
   97       2.518414308983e-10       4.657437998704e-14      -8.725408436747e-13       0.000000000000e+00       2.414896565874e-11      -3.798518102924e-12      -4.832967208685e-15 
   98       2.542039141825e-10       4.789902726773e-14      -9.187040913594e-13       0.000000000000e+00       2.352791960017e-11      -3.686329102516e-12      -4.848484339286e-15 
   99       2.565856768598e-10       4.923872293644e-14      -9.657476176427e-13       0.000000000000e+00       2.292904607765e-11      -3.578598023905e-12      -4.831813685947e-15 
  100       2.589867186588e-10       5.059301818257e-14      -1.013651823729e-12       0.000000000000e+00       2.235133151097e-11      -3.475080927997e-12      -4.793036805272e-15 
  101       2.614068818179e-10       5.196144525378e-14      -1.062395797112e-12       0.000000000000e+00       2.179350836178e-11      -3.375482205457e-12      -4.743154197705e-15 
  102       2.638458447330e-10       5.334351727587e-14      -1.111957292653e-12       0.000000000000e+00       2.125404696444e-11      -3.279452954674e-12      -4.694108946875e-15 
  103       2.663031156042e-10       5.473872807259e-14      -1.162312713660e-12       0.000000000000e+00       2.073114735676e-11      -3.186589359717e-12      -4.658810358943e-15 
  104       2.687782338117e-10       5.614654020259e-14      -1.213438386389e-12       0.000000000000e+00       2.022314783741e-11      -3.096520632791e-12      -4.648394834332e-15 
  105       2.712714187049e-10       5.756634761775e-14      -1.265314620367e-12       0.000000000000e+00       1.972983108813e-11      -3.009189864824e-12      -4.663536163082e-15 
  106       2.737829970198e-10       5.899750760117e-14      -1.317922163839e-12       0.000000000000e+00       1.925128008127e-11      -2.924608266374e-12      -4.701999982929e-15 
  107       2.763131989561e-10       6.043935179371e-14      -1.371240954679e-12       0.000000000000e+00       1.878747356235e-11      -2.842768360896e-12      -4.761295083885e-15 
