# Matter power spectrum P(k) at redshift z=0
# for k=0.000781849 to 164.874 h/Mpc,
# number of wavenumbers equal to 514
#    1:k (h/Mpc)              2:P (Mpc/h)^3        
       7.818492497070e-04       1.740231306179e-04 
       6.175584288916e-03       1.270335577556e-03 
       1.871628053310e-02       3.687459691183e-03 
       3.154890607755e-02       6.082621549595e-03 
       4.440556144501e-02       8.429764048111e-03 
       5.726891524207e-02       1.073419335616e-02 
       7.013517628769e-02       1.299931234922e-02 
       8.300305561736e-02       1.522718073025e-02 
       9.587199990002e-02       1.741906398613e-02 
       1.087417348150e-01       1.957578670586e-02 
       1.216121107338e-01       2.169796432194e-02 
       1.344830405858e-01       2.378609456527e-02 
       1.473544715215e-01       2.584032296490e-02 
       1.602263707209e-01       2.786126350967e-02 
       1.730987177462e-01       2.984926364791e-02 
       1.859715001713e-01       3.180464146434e-02 
       1.988447109607e-01       3.372774697517e-02 
       2.117183468330e-01       3.561888069216e-02 
       2.245924072024e-01       3.747837349718e-02 
       2.374668934749e-01       3.930654004460e-02 
       2.503418085683e-01       4.110373859346e-02 
       2.632171565761e-01       4.287028615220e-02 
       2.760929425299e-01       4.460654214967e-02 
       2.889691722268e-01       4.631286494663e-02 
       3.018458521027e-01       4.798961307798e-02 
       3.147229891392e-01       4.963715272408e-02 
       3.276005907924e-01       5.125584644144e-02 
       3.404786649403e-01       5.284606989942e-02 
       3.533572198421e-01       5.440836188476e-02 
       3.662362641073e-01       5.594283225391e-02 
       3.791158066721e-01       5.744981586131e-02 
       3.919958567813e-01       5.892977269015e-02 
       4.048764239745e-01       6.038310259333e-02 
       4.177575180762e-01       6.181008892380e-02 
       4.306391491878e-01       6.321115074264e-02 
       4.435213276825e-01       6.458659384243e-02 
       4.564040642017e-01       6.593677085158e-02 
       4.692873696523e-01       6.726203652519e-02 
       4.821712552066e-01       6.856268627337e-02 
       4.950557323012e-01       6.983907135958e-02 
       5.079408126388e-01       7.109150718115e-02 
       5.208265081890e-01       7.232035183440e-02 
       5.337128311906e-01       7.352588832482e-02 
       5.465997941545e-01       7.470842793388e-02 
       5.594874098664e-01       7.586834868535e-02 
       5.723756913903e-01       7.700588220985e-02 
       5.852646520726e-01       7.812139514879e-02 
       5.981543055461e-01       7.921516757942e-02 
       6.110446657345e-01       8.028751118317e-02 
       6.239357468569e-01       8.133865275157e-02 
       6.368275634332e-01       8.236893619393e-02 
       6.497201302889e-01       8.337858127948e-02 
       6.626134625608e-01       8.436794658610e-02 
       6.755075757026e-01       8.533724939930e-02 
       6.884024854905e-01       8.628677388777e-02 
       7.012982080298e-01       8.721675734564e-02 
       7.141947597605e-01       8.812746226550e-02 
       7.270921574643e-01       8.901913256158e-02 
       7.399904182707e-01       8.989203259152e-02 
       7.528895596645e-01       9.074644428101e-02 
       7.657895994919e-01       9.158257387396e-02 
       7.786905559685e-01       9.240065407385e-02 
       7.915924476863e-01       9.320096788266e-02 
       8.044952936210e-01       9.398366189424e-02 
       8.173991131403e-01       9.474901053129e-02 
       8.303039260113e-01       9.549725630340e-02 
       8.432097524090e-01       9.622863042543e-02 
       8.561166129243e-01       9.694333542241e-02 
       8.690245285725e-01       9.764155820230e-02 
       8.819335208023e-01       9.832350952134e-02 
       8.948436115044e-01       9.898941892039e-02 
       9.077548230207e-01       9.963944127058e-02 
       9.206671781534e-01       1.002739061280e-01 
       9.335807001748e-01       1.008928669095e-01 
       9.464954128369e-01       1.014965609860e-01 
       9.594113403813e-01       1.020852205064e-01 
       9.723285075492e-01       1.026590440824e-01 
       9.852469395922e-01       1.032181409804e-01 
       9.981666622825e-01       1.037627201951e-01 
       1.011087701924e+00       1.042929782525e-01 
       1.024010085363e+00       1.048091220871e-01 
       1.036933840001e+00       1.053112712978e-01 
       1.049858993802e+00       1.057996873779e-01 
       1.062785575312e+00       1.062744178367e-01 
       1.075713613664e+00       1.067357741231e-01 
       1.088643138591e+00       1.071838398987e-01 
       1.101574180445e+00       1.076187871642e-01 
       1.114506770202e+00       1.080407798201e-01 
       1.127440939480e+00       1.084499618090e-01 
       1.140376720551e+00       1.088465242934e-01 
       1.153314146355e+00       1.092306334164e-01 
       1.166253250515e+00       1.096024149492e-01 
       1.179194067349e+00       1.099619981226e-01 
       1.192136631887e+00       1.103096144891e-01 
       1.205080979885e+00       1.106452738910e-01 
       1.218027147842e+00       1.109692912407e-01 
       1.230975173012e+00       1.112817247855e-01 
       1.243925093426e+00       1.115827522632e-01 
       1.256876947903e+00       1.118724104096e-01 
       1.269830776068e+00       1.121509659511e-01 
       1.282786618371e+00       1.124185549814e-01 
       1.295744516106e+00       1.126752582276e-01 
       1.308704511423e+00       1.129212219884e-01 
       1.321666647352e+00       1.131566022519e-01 
       1.334630967820e+00       1.133815441731e-01 
       1.347597517670e+00       1.135961461803e-01 
       1.360566342681e+00       1.138005093108e-01 
       1.373537489586e+00       1.139948223694e-01 
       1.386511006098e+00       1.141792148323e-01 
       1.399486940925e+00       1.143537951336e-01 
       1.412465343796e+00       1.145186343241e-01 
       1.425446265479e+00       1.146739308418e-01 
       1.438429757808e+00       1.148198089735e-01 
       1.451415873703e+00       1.149563057890e-01 
       1.464404667193e+00       1.150836232303e-01 
       1.477396193444e+00       1.152018364148e-01 
       1.490390508779e+00       1.153111114988e-01 
       1.503387670707e+00       1.154115554126e-01 
       1.516387737947e+00       1.155032414196e-01 
       1.529390770454e+00       1.155863426775e-01 
       1.542396829449e+00       1.156609979427e-01 
       1.555405977443e+00       1.157272808324e-01 
       1.568418278268e+00       1.157852917964e-01 
       1.581433797103e+00       1.158351582726e-01 
       1.594452600509e+00       1.158769487136e-01 
       1.607474756454e+00       1.159107816222e-01 
       1.620500334347e+00       1.159368187621e-01 
       1.633529405070e+00       1.159551081895e-01 
       1.646562041010e+00       1.159657392814e-01 
       1.659598316092e+00       1.159689344983e-01 
       1.672638305814e+00       1.159646373994e-01 
       1.685682087281e+00       1.159531105902e-01 
       1.698729739245e+00       1.159343560294e-01 
       1.711781342135e+00       1.159084759504e-01 
       1.724836978100e+00       1.158756792582e-01 
       1.737896731047e+00       1.158359221323e-01 
       1.750960686678e+00       1.157893376882e-01 
       1.764028932533e+00       1.157361960860e-01 
       1.777101558032e+00       1.156763754538e-01 
       1.790178654514e+00       1.156100061328e-01 
       1.803260315285e+00       1.155373304827e-01 
       1.816346635661e+00       1.154582335086e-01 
       1.829437713013e+00       1.153729668450e-01 
       1.842533646814e+00       1.152816541139e-01 
       1.855634538691e+00       1.151841711643e-01 
       1.868740492468e+00       1.150809341852e-01 
       1.881851614223e+00       1.149717295388e-01 
       1.894968012337e+00       1.148567936004e-01 
       1.908089797544e+00       1.147363001266e-01 
       1.921217082995e+00       1.146101110512e-01 
       1.934349984304e+00       1.144784630158e-01 
       1.947488619613e+00       1.143415712530e-01 
       1.960633109645e+00       1.141992191696e-01 
       1.973783577771e+00       1.140517713807e-01 
       1.986940150066e+00       1.138990470229e-01 
       2.000102955379e+00       1.137413060908e-01 
       2.013272125394e+00       1.135787165068e-01 
       2.026447794697e+00       1.134112479084e-01 
       2.039630100849e+00       1.132387211185e-01 
       2.052819184455e+00       1.130618775705e-01 
       2.066015189235e+00       1.128801223185e-01 
       2.079218262103e+00       1.126940670956e-01 
       2.092428553238e+00       1.125032525171e-01 
       2.105646216169e+00       1.123082464995e-01 
       2.118871407854e+00       1.121088890530e-01 
       2.132104288761e+00       1.119052818404e-01 
       2.145345022956e+00       1.116974875055e-01 
       2.158593778192e+00       1.114857369103e-01 
       2.171850725998e+00       1.112698460467e-01 
       2.185116041772e+00       1.110501354788e-01 
       2.198389904877e+00       1.108264832305e-01 
       2.211672498741e+00       1.105992463096e-01 
       2.224964010956e+00       1.103680897040e-01 
       2.238264633384e+00       1.101333858401e-01 
       2.251574562261e+00       1.098951412019e-01 
       2.264893998314e+00       1.096535317800e-01 
       2.278223146866e+00       1.094084548793e-01 
       2.291562217960e+00       1.091599460556e-01 
       2.304911426475e+00       1.089081707703e-01 
       2.318270992253e+00       1.086532298600e-01 
       2.331641140223e+00       1.083951226317e-01 
       2.345022100536e+00       1.081340397407e-01 
       2.358414108697e+00       1.078700381592e-01 
       2.371817405708e+00       1.076029257730e-01 
       2.385232238210e+00       1.073329806701e-01 
       2.398658858631e+00       1.070603163638e-01 
       2.412097525336e+00       1.067847647893e-01 
       2.425548502793e+00       1.065069320959e-01 
       2.439012061726e+00       1.062257437515e-01 
       2.452488479286e+00       1.059424958382e-01 
       2.465978039228e+00       1.056567158910e-01 
       2.479481032081e+00       1.053685793382e-01 
       2.492997755339e+00       1.050777277827e-01 
       2.506528513649e+00       1.047849480280e-01 
       2.520073619007e+00       1.044898128426e-01 
       2.533633390957e+00       1.041924161815e-01 
       2.547208156808e+00       1.038930058298e-01 
       2.560798251842e+00       1.035914719059e-01 
       2.574404019544e+00       1.032879662879e-01 
       2.588025811827e+00       1.029824821957e-01 
       2.601663989276e+00       1.026748095691e-01 
       2.615318921392e+00       1.023654702247e-01 
       2.628990986845e+00       1.020544367339e-01 
       2.642680573742e+00       1.017418195005e-01 
       2.656388079900e+00       1.014270151161e-01 
       2.670113913125e+00       1.011108306744e-01 
       2.683858491508e+00       1.007929244914e-01 
       2.697622243727e+00       1.004734462966e-01 
       2.711405609360e+00       1.001527779734e-01 
       2.725209039211e+00       9.983039788301e-02 
       2.739032995647e+00       9.950654561441e-02 
       2.752877952949e+00       9.918125494501e-02 
       2.766744397668e+00       9.885506090522e-02 
       2.780632829008e+00       9.852748187630e-02 
       2.794543759211e+00       9.819859353938e-02 
       2.808477713961e+00       9.786850219687e-02 
       2.822435232805e+00       9.753734918721e-02 
       2.836416869589e+00       9.720507177922e-02 
       2.850423192910e+00       9.687195299480e-02 
       2.864454786581e+00       9.653743716456e-02 
       2.878512250128e+00       9.620204748075e-02 
       2.892596199290e+00       9.586575171509e-02 
       2.906707266549e+00       9.552865935612e-02 
       2.920846101681e+00       9.519090536236e-02 
       2.935013372321e+00       9.485201761066e-02 
       2.949209764564e+00       9.451246521545e-02 
       2.963435983580e+00       9.417228484085e-02 
       2.977692754257e+00       9.383130496280e-02 
       2.991980821874e+00       9.348967897757e-02 
       3.006300952801e+00       9.314731585530e-02 
       3.020653935224e+00       9.280442568370e-02 
       3.035040579912e+00       9.246092845896e-02 
       3.049461721003e+00       9.211705424633e-02 
       3.063918216835e+00       9.177251576161e-02 
       3.078410950811e+00       9.142769657601e-02 
       3.092940832301e+00       9.108224179716e-02 
       3.107508797582e+00       9.073632487317e-02 
       3.122115810827e+00       9.039039494374e-02 
       3.136762865136e+00       9.004389823112e-02 
       3.151450983609e+00       8.969703439566e-02 
       3.166181220479e+00       8.934971429939e-02 
       3.180954662290e+00       8.900251108104e-02 
       3.195772429136e+00       8.865483486726e-02 
       3.210635675956e+00       8.830686026451e-02 
       3.225545593890e+00       8.795886874957e-02 
       3.240503411708e+00       8.761077966937e-02 
       3.255510397303e+00       8.726210601202e-02 
       3.270567859258e+00       8.691379076716e-02 
       3.285677148499e+00       8.656512461407e-02 
       3.300839660019e+00       8.621642298073e-02 
       3.316056834706e+00       8.586753921103e-02 
       3.331330161253e+00       8.551892583187e-02 
       3.346661178172e+00       8.517020758667e-02 
       3.362051475916e+00       8.482106607343e-02 
       3.377502699116e+00       8.447217542688e-02 
       3.393016548931e+00       8.412346660198e-02 
       3.408594785532e+00       8.377459589679e-02 
       3.424239230725e+00       8.342591704238e-02 
       3.439951770716e+00       8.307709101983e-02 
       3.455734359029e+00       8.272840303700e-02 
       3.471589019600e+00       8.237990552554e-02 
       3.487517850043e+00       8.203137229124e-02 
       3.503523025104e+00       8.168298756310e-02 
       3.519606800322e+00       8.133474168092e-02 
       3.535771515913e+00       8.098684268630e-02 
       3.552019600877e+00       8.063888439430e-02 
       3.568353577369e+00       8.029094878188e-02 
       3.584776065329e+00       7.994313296469e-02 
       3.601289787409e+00       7.959551168113e-02 
       3.617897574210e+00       7.924821721283e-02 
       3.634602369851e+00       7.890093610794e-02 
       3.651407237909e+00       7.855400539700e-02 
       3.668315367737e+00       7.820692151685e-02 
       3.685330081217e+00       7.786022040252e-02 
       3.702454839956e+00       7.751344697503e-02 
       3.719693252981e+00       7.716743237657e-02 
       3.737049084969e+00       7.682089127139e-02 
       3.754526265047e+00       7.647492474305e-02 
       3.772128896227e+00       7.612891856647e-02 
       3.789861265516e+00       7.578309539576e-02 
       3.807727854770e+00       7.543732143665e-02 
       3.825733352352e+00       7.509165250566e-02 
       3.843882665668e+00       7.474637048618e-02 
       3.862180934662e+00       7.440124401806e-02 
       3.880633546355e+00       7.405572593651e-02 
       3.899246150528e+00       7.371054158213e-02 
       3.918024676666e+00       7.336526591456e-02 
       3.936975352266e+00       7.302028891078e-02 
       3.956104722659e+00       7.267529670533e-02 
       3.975419672491e+00       7.233030083934e-02 
       3.994927449033e+00       7.198524690705e-02 
       4.014635687501e+00       7.164022417954e-02 
       4.034552438608e+00       7.129537199405e-02 
       4.054686198574e+00       7.094997215556e-02 
       4.075045941864e+00       7.060469094745e-02 
       4.095641156955e+00       7.025935705748e-02 
       4.116481885470e+00       6.991351292641e-02 
       4.137578765058e+00       6.956793435905e-02 
       4.158943076456e+00       6.922172184718e-02 
       4.180586795236e+00       6.887566459003e-02 
       4.202522648774e+00       6.852882599246e-02 
       4.224764179112e+00       6.818172962784e-02 
       4.247325812417e+00       6.783429308962e-02 
       4.270222935900e+00       6.748648984685e-02 
       4.293471983150e+00       6.713800606312e-02 
       4.317090528983e+00       6.678884925400e-02 
       4.341097395126e+00       6.643914443696e-02 
       4.365512768179e+00       6.608877960680e-02 
       4.390358331625e+00       6.573751364220e-02 
       4.415657413877e+00       6.538541112493e-02 
       4.441435154725e+00       6.503241282757e-02 
       4.467718692945e+00       6.467827142310e-02 
       4.494537378307e+00       6.432310558818e-02 
       4.521923011827e+00       6.396636697806e-02 
       4.549910118770e+00       6.360859858382e-02 
       4.578536259824e+00       6.324910187504e-02 
       4.607842386833e+00       6.288818254153e-02 
       4.637873250806e+00       6.252536671646e-02 
       4.668677871422e+00       6.216072771049e-02 
       4.700310079180e+00       6.179392777567e-02 
       4.732829143696e+00       6.142477788912e-02 
       4.766300504573e+00       6.105327045239e-02 
       4.800796624893e+00       6.067881860255e-02 
       4.836397991954e+00       6.030163106907e-02 
       4.873194295585e+00       5.992098048710e-02 
       4.911285821566e+00       5.953683854861e-02 
       4.950785106824e+00       5.914864543962e-02 
       4.991818914626e+00       5.875623311368e-02 
       5.034530602745e+00       5.835892078439e-02 
       5.079082976324e+00       5.795629275382e-02 
       5.125661741112e+00       5.754776013679e-02 
       5.174479703196e+00       5.713268088828e-02 
       5.225781899882e+00       5.671014569363e-02 
       5.279851894726e+00       5.627921639425e-02 
       5.337019529182e+00       5.583888891404e-02 
       5.397670494314e+00       5.538771567690e-02 
       5.462258165751e+00       5.492377740980e-02 
       5.531318224286e+00       5.444516571807e-02 
       5.605486639591e+00       5.394934625049e-02 
       5.685521573283e+00       5.343307772487e-02 
       5.772329552012e+00       5.289193645871e-02 
       5.866995660017e+00       5.232019195310e-02 
       5.970816111727e+00       5.171105375006e-02 
       6.085328715204e+00       5.105457399858e-02 
       6.212331412915e+00       5.033763368563e-02 
       6.353870168934e+00       4.954331697238e-02 
       6.512164939122e+00       4.864931610376e-02 
       6.689430758996e+00       4.762755246937e-02 
       6.887554988558e+00       4.644572122950e-02 
       7.107639284014e+00       4.507125737830e-02 
       7.349525164811e+00       4.347970775817e-02 
       7.611544108793e+00       4.166613657104e-02 
       7.890715995188e+00       3.965379966925e-02 
       8.183371556381e+00       3.749705069019e-02 
       8.485888414894e+00       3.527372939032e-02 
       8.795207178363e+00       3.307036512802e-02 
       9.109017263526e+00       3.096893520401e-02 
       9.425704072217e+00       2.903598030287e-02 
       9.744196539317e+00       2.731652817566e-02 
       1.006380773149e+01       2.583313969194e-02 
       1.038410639844e+01       2.458710321733e-02 
       1.070482539013e+01       2.356199515540e-02 
       1.102580056872e+01       2.272787558256e-02 
       1.134693159459e+01       2.204546917988e-02 
       1.166815731740e+01       2.147056696317e-02 
       1.198944053980e+01       2.095812400602e-02 
       1.231075866072e+01       2.046613979960e-02 
       1.263209795725e+01       1.995926225703e-02 
       1.295345010061e+01       1.941159726560e-02 
       1.327481003716e+01       1.880859986267e-02 
       1.359617470097e+01       1.814721525509e-02 
       1.391754223221e+01       1.743489485619e-02 
       1.423891150270e+01       1.668736604239e-02 
       1.456028182817e+01       1.592541238018e-02 
       1.488165279353e+01       1.517205384571e-02 
       1.520302414703e+01       1.444906399450e-02 
       1.552439573598e+01       1.377541438539e-02 
       1.584576746775e+01       1.316458603667e-02 
       1.616713928617e+01       1.262476439552e-02 
       1.648851115716e+01       1.215810908464e-02 
       1.680988306006e+01       1.176171619326e-02 
