# dimensionless total [l(l+1)/2pi] C_l's
# for l=2 to 3000, i.e. number of multipoles equal to 2999
#
# -> if you prefer output in CAMB/HealPix/LensPix units/order, set 'format' to 'camb' in input file
# -> if you don't want to see such a header, set 'headers' to 'no' in input file
# -> for CMB lensing (phi), these are C_l^phi-phi for the lensing potential.
#    Remember the conversion factors:
#    C_l^dd (deflection) = l(l+1) C_l^phi-phi
#    C_l^gg (shear/convergence) = 1/4 (l(l+1))^2 C_l^phi-phi
#
# 1:l     2:TT                     3:EE                     4:TE                     5:BB                     6:phiphi                 7:TPhi                   8:Ephi               
    2       5.916069695840e-10       3.379090787105e-15       8.132542215471e-13       0.000000000000e+00       2.299069170747e-08      -2.966971983249e-09      -2.236808721937e-12 
    3       4.287391142152e-10       6.767903079678e-15       8.090862073791e-13       0.000000000000e+00       1.455364822904e-08      -1.925493454024e-09      -1.868535983347e-12 
    4       3.416302244272e-10       1.031054121905e-14       7.850652896090e-13       0.000000000000e+00       1.012463829927e-08      -1.380578952516e-09      -1.603946585425e-12 
    5       2.878673131552e-10       1.301521766490e-14       7.425699259065e-13       0.000000000000e+00       7.508354825963e-09      -1.052808409683e-09      -1.373707796096e-12 
    6       2.514568418864e-10       1.427647434383e-14       6.843735198233e-13       0.000000000000e+00       5.830668381932e-09      -8.364474216165e-10      -1.155333345888e-12 
    7       2.252912464971e-10       1.400296228392e-14       6.177841448934e-13       0.000000000000e+00       4.688540189835e-09      -6.844977365825e-10      -9.498427359745e-13 
    8       2.057591100175e-10       1.247824458356e-14       5.483793240361e-13       0.000000000000e+00       3.871470424315e-09      -5.727506923052e-10      -7.601400984888e-13 
    9       1.907516046476e-10       1.019090151021e-14       4.801991778674e-13       0.000000000000e+00       3.261108060404e-09      -4.875717294616e-10      -5.885921974895e-13 
   10       1.790097490105e-10       7.667341853599e-15       4.158954150125e-13       0.000000000000e+00       2.787877479847e-09      -4.207566712972e-10      -4.368534646471e-13 
   11       1.697130471127e-10       5.344581585776e-15       3.570571132030e-13       0.000000000000e+00       2.076396399864e-09      -3.478825253771e-10      -3.066294986033e-13 
   12       1.622345725528e-10       3.500860082591e-15       3.047455703533e-13       0.000000000000e+00       1.796072577827e-09      -3.051740591193e-10      -1.974112726408e-13 
   13       1.562177876072e-10       2.242099514000e-15       2.595866340087e-13       0.000000000000e+00       1.568517792217e-09      -2.697752168878e-10      -1.081875706389e-13 
   14       1.513933224292e-10       1.530478736942e-15       2.218860431436e-13       0.000000000000e+00       1.381170253505e-09      -2.402764159248e-10      -3.900245212308e-14 
   15       1.474725281892e-10       1.236404578602e-15       1.917733261739e-13       0.000000000000e+00       1.225025588796e-09      -2.152218009779e-10       1.226000909964e-14 
   16       1.443153559028e-10       1.195423142161e-15       1.690668131928e-13       0.000000000000e+00       1.093480327287e-09      -1.938638981617e-10       4.675629332254e-14 
   17       1.417962866530e-10       1.255809621752e-15       1.532788134244e-13       0.000000000000e+00       9.816096328767e-10      -1.753543012794e-10       6.701418666424e-14 
   18       1.397640333693e-10       1.304475633015e-15       1.437435872226e-13       0.000000000000e+00       8.852017928580e-10      -1.593031021851e-10       7.519411770472e-14 
   19       1.381940339778e-10       1.299616356397e-15       1.398933638807e-13       0.000000000000e+00       8.027582391525e-10      -1.454676135647e-10       7.338391844327e-14 
   20       1.369811719444e-10       1.223473881593e-15       1.405780442838e-13       0.000000000000e+00       7.306159889378e-10      -1.331868274459e-10       6.473819760406e-14 
   21       1.360876479122e-10       1.101618363870e-15       1.449153257677e-13       0.000000000000e+00       6.674943599718e-10      -1.222859496298e-10       5.131244336015e-14 
   22       1.354372459164e-10       9.794653550007e-16       1.517987241355e-13       0.000000000000e+00       6.118253047999e-10      -1.125762431147e-10       3.520718983426e-14 
   23       1.350228823674e-10       8.883391952319e-16       1.603949978216e-13       0.000000000000e+00       5.627475185001e-10      -1.039510186042e-10       1.811765313208e-14 
   24       1.348169296326e-10       8.533937522972e-16       1.698013317892e-13       0.000000000000e+00       5.190045200230e-10      -9.621935631072e-11       1.723430554787e-15 
   25       1.347953277005e-10       8.766367875069e-16       1.793671287384e-13       0.000000000000e+00       4.800191734702e-10      -8.926599148516e-11      -1.293767655075e-14 
   26       1.349110304912e-10       9.480401970426e-16       1.884800702022e-13       0.000000000000e+00       4.450326598213e-10      -8.293923362929e-11      -2.507135639679e-14 
   27       1.351636916538e-10       1.047653142822e-15       1.968174757226e-13       0.000000000000e+00       4.135815869144e-10      -7.719787097118e-11      -3.427337672154e-14 
   28       1.355489936193e-10       1.151448115392e-15       2.041596020943e-13       0.000000000000e+00       3.850775772103e-10      -7.199324622885e-11      -4.036739651895e-14 
   29       1.360656502787e-10       1.249838767627e-15       2.104406048985e-13       0.000000000000e+00       3.593487194618e-10      -6.729563849349e-11      -4.341447420021e-14 
   30       1.366903738077e-10       1.336662325914e-15       2.156652791269e-13       0.000000000000e+00       3.360918212972e-10      -6.303104017570e-11      -4.368992760536e-14 
   31       1.373830314085e-10       1.407505775197e-15       2.198881010210e-13       0.000000000000e+00       3.147990129360e-10      -5.908960247973e-11      -4.163362042080e-14 
   32       1.381456497312e-10       1.470000523739e-15       2.232572442660e-13       0.000000000000e+00       2.953442246977e-10      -5.545626973097e-11      -3.768618442543e-14 
   33       1.389816867338e-10       1.537710492818e-15       2.259948484471e-13       0.000000000000e+00       2.775758318235e-10      -5.212202301680e-11      -3.241825816808e-14 
   34       1.398840229371e-10       1.624920846772e-15       2.283574716375e-13       0.000000000000e+00       2.612277511061e-10      -4.905661588596e-11      -2.649883137471e-14 
   35       1.408526230837e-10       1.736860480620e-15       2.305211983329e-13       0.000000000000e+00       2.462059127240e-10      -4.624241680773e-11      -2.038737737459e-14 
   36       1.418806032665e-10       1.876147091707e-15       2.326603851262e-13       0.000000000000e+00       2.323791623867e-10      -4.364818676690e-11      -1.454742950185e-14 
   37       1.429545379475e-10       2.044525914274e-15       2.349460384700e-13       0.000000000000e+00       2.195550482970e-10      -4.123153304523e-11      -9.450240326673e-15 
   38       1.440759633990e-10       2.240062121455e-15       2.374310815151e-13       0.000000000000e+00       2.076944995473e-10      -3.898556271411e-11      -5.289667547801e-15 
   39       1.452453569829e-10       2.458913663328e-15       2.401266691569e-13       0.000000000000e+00       1.967548044462e-10      -3.690515331135e-11      -2.174864084247e-15 
   40       1.464553956827e-10       2.695971420811e-15       2.430312592647e-13       0.000000000000e+00       1.866245055915e-10      -3.497310117618e-11      -2.048132048242e-16 
   41       1.476952090126e-10       2.946251039612e-15       2.461150588998e-13       0.000000000000e+00       1.771610746837e-10      -3.316634844664e-11       5.678537192101e-16 
   42       1.489666528061e-10       3.209821928782e-15       2.492704000278e-13       0.000000000000e+00       1.683330180576e-10      -3.147965923868e-11       2.561258106295e-16 
   43       1.502720377973e-10       3.488336782400e-15       2.523430202651e-13       0.000000000000e+00       1.601139973159e-10      -2.990786037789e-11      -9.394185171752e-16 
   44       1.516091478317e-10       3.783706087375e-15       2.551426827960e-13       0.000000000000e+00       1.524402782118e-10      -2.843866355904e-11      -2.758258038775e-15 
   45       1.529736181646e-10       4.097566022038e-15       2.574672283752e-13       0.000000000000e+00       1.452328111021e-10      -2.705690070634e-11      -4.917480535154e-15 
   46       1.543679189017e-10       4.429457334619e-15       2.591886846975e-13       0.000000000000e+00       1.384783214023e-10      -2.576006554839e-11      -7.246844702070e-15 
   47       1.557943349232e-10       4.778127372605e-15       2.601890177450e-13       0.000000000000e+00       1.321674254405e-10      -2.454646150553e-11      -9.587586069442e-15 
   48       1.572521397209e-10       5.142013653050e-15       2.603352862531e-13       0.000000000000e+00       1.262702145159e-10      -2.341052842064e-11      -1.175313662836e-14 
   49       1.587373321817e-10       5.519227263481e-15       2.594788758590e-13       0.000000000000e+00       1.207347361928e-10      -2.234255636099e-11      -1.352768061273e-14 
   50       1.602446805207e-10       5.908142635320e-15       2.574869138352e-13       0.000000000000e+00       1.155023324014e-10      -2.133160748454e-11      -1.471405463412e-14 
   51       1.617751187981e-10       6.309394101595e-15       2.543483427807e-13       0.000000000000e+00       1.105620853287e-10      -2.037588061594e-11      -1.529612671570e-14 
   52       1.633299031177e-10       6.724392589686e-15       2.500953156129e-13       0.000000000000e+00       1.059085250733e-10      -1.947466530641e-11      -1.531799679163e-14 
   53       1.649083289769e-10       7.154778267920e-15       2.447742622399e-13       0.000000000000e+00       1.015253562755e-10      -1.862524763567e-11      -1.483936166664e-14 
   54       1.665075766221e-10       7.602432481647e-15       2.384466380896e-13       0.000000000000e+00       9.738473267290e-11      -1.782277498147e-11      -1.393639288494e-14 
   55       1.681242237790e-10       8.069195918974e-15       2.311797126676e-13       0.000000000000e+00       9.345558296825e-11      -1.706174666950e-11      -1.269782028916e-14 
   56       1.697595781880e-10       8.555913775352e-15       2.230145407288e-13       0.000000000000e+00       8.973267243004e-11      -1.634122936732e-11      -1.121003225119e-14 
   57       1.714153989128e-10       9.063174294348e-15       2.139913455646e-13       0.000000000000e+00       8.621349014445e-11      -1.566070043957e-11      -9.569811675121e-15 
   58       1.730922572996e-10       9.591582235639e-15       2.041591344936e-13       0.000000000000e+00       8.288946555220e-11      -1.501846526169e-11      -7.889482047158e-15 
   59       1.747894472947e-10       1.014175936548e-14       1.935760593392e-13       0.000000000000e+00       7.974559565270e-11      -1.441158533551e-11      -6.297598513239e-15 
   60       1.765048957630e-10       1.071434494720e-14       1.823097769083e-13       0.000000000000e+00       7.676007220808e-11      -1.383580640482e-11      -4.939638956600e-15 
   61       1.782362481128e-10       1.130986368337e-14       1.704176083898e-13       0.000000000000e+00       7.391025793559e-11      -1.328670571875e-11      -3.945135826359e-15 
   62       1.799846128118e-10       1.192829379466e-14       1.578809979500e-13       0.000000000000e+00       7.119302598477e-11      -1.276359736743e-11      -3.318887042138e-15 
   63       1.817515020509e-10       1.256940242078e-14       1.446569153890e-13       0.000000000000e+00       6.860834511842e-11      -1.226637996997e-11      -3.026441408879e-15 
   64       1.835376792518e-10       1.323286597222e-14       1.306964841209e-13       0.000000000000e+00       6.615316563170e-11      -1.179436233484e-11      -3.025136767809e-15 
   65       1.853431066768e-10       1.391826641507e-14       1.159447006871e-13       0.000000000000e+00       6.382124800488e-11      -1.134623025806e-11      -3.263726264428e-15 
   66       1.871668930386e-10       1.462508755582e-14       1.003401542697e-13       0.000000000000e+00       6.160299155597e-11      -1.092001332140e-11      -3.682004616497e-15 
   67       1.890072411095e-10       1.535271132618e-14       8.381474620457e-14       0.000000000000e+00       5.948526309350e-11      -1.051305169055e-11      -4.210434382022e-15 
   68       1.908622696885e-10       1.610057165919e-14       6.630421212986e-14       0.000000000000e+00       5.745486991065e-11      -1.012269725529e-11      -4.780530672832e-15 
   69       1.927327900106e-10       1.686866062801e-14       4.778279119960e-14       0.000000000000e+00       5.551017895463e-11      -9.748656239677e-12      -5.359294158284e-15 
   70       1.946200003796e-10       1.765711866127e-14       2.823511016365e-14       0.000000000000e+00       5.365155500861e-11      -9.391063802167e-12      -5.921115763103e-15 
   71       1.965246320979e-10       1.846608633566e-14       7.645998163405e-15       0.000000000000e+00       5.187784792131e-11      -9.049777530520e-12      -6.437538733977e-15 
   72       1.984469194382e-10       1.929570469121e-14      -1.399951747273e-14       0.000000000000e+00       5.018631446541e-11      -8.724363021132e-12      -6.877160059604e-15 
   73       2.003865696154e-10       2.014611554656e-14      -3.671621543375e-14       0.000000000000e+00       4.857254019586e-11      -8.414079458364e-12      -7.205531890736e-15 
   74       2.023427327583e-10       2.101746181432e-14      -6.051868463057e-14       0.000000000000e+00       4.703036130827e-11      -8.117865193861e-12      -7.385062960235e-15 
   75       2.043139718815e-10       2.190988781627e-14      -8.542132840050e-14       0.000000000000e+00       4.555178649730e-11      -7.834323325875e-12      -7.374920003112e-15 
   76       2.062988832582e-10       2.282349627679e-14      -1.114319410406e-13       0.000000000000e+00       4.412896770141e-11      -7.562062653582e-12      -7.144493105543e-15 
   77       2.082981545229e-10       2.375820955205e-14      -1.385310758048e-13       0.000000000000e+00       4.276069996513e-11      -7.300824197169e-12      -6.716844475807e-15 
   78       2.103128290620e-10       2.471388355050e-14      -1.666889047206e-13       0.000000000000e+00       4.144697039729e-11      -7.050534859071e-12      -6.133040477130e-15 
   79       2.123436724865e-10       2.569034824608e-14      -1.958711869514e-13       0.000000000000e+00       4.018697889247e-11      -6.810963255145e-12      -5.439467242148e-15 
   80       2.143911559404e-10       2.668740710515e-14      -2.260391411967e-13       0.000000000000e+00       3.897910200342e-11      -6.581712581237e-12      -4.688010232304e-15 
   81       2.164554394098e-10       2.770483651338e-14      -2.571493180917e-13       0.000000000000e+00       3.782085681350e-11      -6.362213479765e-12      -3.936233797246e-15 
   82       2.185363550317e-10       2.874238520277e-14      -2.891534726073e-13       0.000000000000e+00       3.670886480913e-11      -6.151716906291e-12      -3.247560734225e-15 
   83       2.206333904024e-10       2.979977367853e-14      -3.219984364502e-13       0.000000000000e+00       3.563881575223e-11      -5.949286996096e-12      -2.691451847488e-15 
   84       2.227460347628e-10       3.087671933660e-14      -3.556383636694e-13       0.000000000000e+00       3.460651081187e-11      -5.754028702893e-12      -2.327163434902e-15 
   85       2.248749200544e-10       3.197301785582e-14      -3.900740794792e-13       0.000000000000e+00       3.361126978746e-11      -5.565829700305e-12      -2.151532615128e-15 
   86       2.270208393032e-10       3.308847431091e-14      -4.253200510186e-13       0.000000000000e+00       3.265302511918e-11      -5.384728965006e-12      -2.142824880565e-15 
   87       2.291843901259e-10       3.422287854239e-14      -4.613926733001e-13       0.000000000000e+00       3.173127512632e-11      -5.210689799246e-12      -2.276291524897e-15 
   88       2.313659641373e-10       3.537600501527e-14      -4.983103495627e-13       0.000000000000e+00       3.084506601857e-11      -5.043596643179e-12      -2.524073201270e-15 
   89       2.335657363584e-10       3.654761267782e-14      -5.360935716244e-13       0.000000000000e+00       2.999297390726e-11      -4.883251887189e-12      -2.855103480461e-15 
   90       2.357836546232e-10       3.773744482019e-14      -5.747650002357e-13       0.000000000000e+00       2.917308681663e-11      -4.729372684214e-12      -3.235012409058e-15 
   91       2.380194289867e-10       3.894522893323e-14      -6.143495454320e-13       0.000000000000e+00       2.838298669504e-11      -4.581587762072e-12      -3.626030067632e-15 
   92       2.402725211325e-10       4.017067656711e-14      -6.548744468869e-13       0.000000000000e+00       2.761973142626e-11      -4.439434235788e-12      -3.986890128911e-15 
   93       2.425424381150e-10       4.141348021826e-14      -6.963621679803e-13       0.000000000000e+00       2.688055187909e-11      -4.302464731424e-12      -4.281484438292e-15 
   94       2.448296871310e-10       4.267330376127e-14      -7.388076809463e-13       0.000000000000e+00       2.616510205108e-11      -4.170594111246e-12      -4.506525191273e-15 
   95       2.471349454301e-10       4.394979030999e-14      -7.821978980783e-13       0.000000000000e+00       2.547351566192e-11      -4.043799245003e-12      -4.667884196733e-15 
   96       2.494587624448e-10       4.524256488154e-14      -8.265185355664e-13       0.000000000000e+00       2.480571320504e-11      -3.922011693840e-12      -4.772235918487e-15 
   97       2.518015533763e-10       4.655123421419e-14      -8.717540952051e-13       0.000000000000e+00       2.416139377411e-11      -3.805116036856e-12      -4.827081157304e-15 
   98       2.541635927793e-10       4.787538658531e-14      -9.178878461016e-13       0.000000000000e+00       2.354002688951e-11      -3.692948197655e-12      -4.840770732929e-15 
   99       2.565450081471e-10       4.921459162928e-14      -9.649018063838e-13       0.000000000000e+00       2.294084432477e-11      -3.585293770900e-12      -4.822529166110e-15 
  100       2.589457734970e-10       5.056840015537e-14      -1.012776724908e-12       0.000000000000e+00       2.236283193305e-11      -3.481886348869e-12      -4.782478360612e-15 
  101       2.613657029548e-10       5.193634396573e-14      -1.061492062967e-12       0.000000000000e+00       2.180472147361e-11      -3.382405848004e-12      -4.731661285248e-15 
  102       2.638044443405e-10       5.331793567327e-14      -1.111025975998e-12       0.000000000000e+00       2.126498243827e-11      -3.286476835468e-12      -4.682065655896e-15 
  103       2.662614727532e-10       5.471266851955e-14      -1.161355295292e-12       0.000000000000e+00       2.074181387789e-11      -3.193666855699e-12      -4.646647617522e-15 
  104       2.687362981324e-10       5.612000472344e-14      -1.212456701790e-12       0.000000000000e+00       2.023355318108e-11      -3.103580847533e-12      -4.636576559409e-15 
  105       2.712291336924e-10       5.753933912651e-14      -1.264310467464e-12       0.000000000000e+00       1.973998290407e-11      -3.016162525633e-12      -4.652494678817e-15 
  106       2.737403062452e-10       5.897003027436e-14      -1.316897187599e-12       0.000000000000e+00       1.926118605853e-11      -2.931430781046e-12      -4.692115365303e-15 
  107       2.762700462722e-10       6.041141114293e-14      -1.370196628695e-12       0.000000000000e+00       1.879714137519e-11      -2.849386616117e-12      -4.752889859901e-15 
