# dimensionless total [l(l+1)/2pi] C_l's
# for l=2 to 3000, i.e. number of multipoles equal to 2999
#
# -> if you prefer output in CAMB/HealPix/LensPix units/order, set 'format' to 'camb' in input file
# -> if you don't want to see such a header, set 'headers' to 'no' in input file
# -> for CMB lensing (phi), these are C_l^phi-phi for the lensing potential.
#    Remember the conversion factors:
#    C_l^dd (deflection) = l(l+1) C_l^phi-phi
#    C_l^gg (shear/convergence) = 1/4 (l(l+1))^2 C_l^phi-phi
#
# 1:l     2:TT                     3:EE                     4:TE                     5:BB                     6:phiphi                 7:TPhi                   8:Ephi               
    2       5.960176693481e-10       3.371588390180e-15       8.140137807375e-13       0.000000000000e+00       2.282681064453e-08      -2.980319973289e-09      -2.235558111777e-12 
    3       4.317888897145e-10       6.756069031961e-15       8.096725397707e-13       0.000000000000e+00       1.452414959838e-08      -1.937168427972e-09      -1.867912385104e-12 
    4       3.439050142408e-10       1.029713938725e-14       7.854684190926e-13       0.000000000000e+00       1.013508169887e-08      -1.389815450714e-09      -1.603360715705e-12 
    5       2.896258753335e-10       1.300502642096e-14       7.429073794569e-13       0.000000000000e+00       7.526654029292e-09      -1.059939749161e-09      -1.373330171800e-12 
    6       2.528553983794e-10       1.427364052806e-14       6.847228611741e-13       0.000000000000e+00       5.846385061000e-09      -8.419888354727e-10      -1.155255353544e-12 
    7       2.264607721271e-10       1.400931375747e-14       6.181621621741e-13       0.000000000000e+00       4.699718613009e-09      -6.889511153684e-10      -9.500635607342e-13 
    8       2.067623137600e-10       1.249302135232e-14       5.487948985619e-13       0.000000000000e+00       3.879471758080e-09      -5.764628332655e-10      -7.606161351862e-13 
    9       1.916176237641e-10       1.021131807246e-14       4.806496493806e-13       0.000000000000e+00       3.268169675425e-09      -4.907444244228e-10      -5.892665360326e-13 
   10       1.797413462343e-10       7.689621247779e-15       4.163611377753e-13       0.000000000000e+00       2.795824288862e-09      -4.235367559656e-10      -4.376626450758e-13 
   11       1.703677424228e-10       5.365090518123e-15       3.575097792406e-13       0.000000000000e+00       2.081449176724e-09      -3.499714104089e-10      -3.075182100919e-13 
   12       1.628258708573e-10       3.516982958759e-15       3.051734702722e-13       0.000000000000e+00       1.800411282166e-09      -3.070693732565e-10      -1.983423468324e-13 
   13       1.567480930061e-10       2.252680889216e-15       2.599984995718e-13       0.000000000000e+00       1.572279908062e-09      -2.714773600210e-10      -1.090526210554e-13 
   14       1.518567414540e-10       1.535803739994e-15       2.222621519774e-13       0.000000000000e+00       1.384458672319e-09      -2.417713217345e-10      -3.973563232231e-14 
   15       1.478788665728e-10       1.237802878226e-15       1.920799356673e-13       0.000000000000e+00       1.227922508305e-09      -2.165533530062e-10       1.159973016861e-14 
   16       1.446950497194e-10       1.194699936355e-15       1.692941625675e-13       0.000000000000e+00       1.096048789387e-09      -1.950288945111e-10       4.629795436224e-14 
   17       1.421248548834e-10       1.254685693419e-15       1.534497725480e-13       0.000000000000e+00       9.839011865267e-10      -1.764229927541e-10       6.666458329980e-14 
   18       1.400540480252e-10       1.304130929201e-15       1.438399512707e-13       0.000000000000e+00       8.872549835667e-10      -1.602672959808e-10       7.500320361054e-14 
   19       1.384627943376e-10       1.300589789236e-15       1.399048467231e-13       0.000000000000e+00       8.046090730301e-10      -1.463196784989e-10       7.339064929538e-14 
   20       1.372279997366e-10       1.225545470023e-15       1.405247214004e-13       0.000000000000e+00       7.322907465687e-10      -1.339608243184e-10       6.487228438999e-14 
   21       1.363101310659e-10       1.104203748618e-15       1.448143552945e-13       0.000000000000e+00       6.690157454561e-10      -1.230075731642e-10       5.151623888063e-14 
   22       1.356371110074e-10       9.817920922849e-16       1.516536362855e-13       0.000000000000e+00       6.132118615627e-10      -1.132456681024e-10       3.547573396225e-14 
   23       1.352066928527e-10       8.897763033105e-16       1.602131244970e-13       0.000000000000e+00       5.640156927538e-10      -1.045689479221e-10       1.844085068145e-14 
   24       1.349943391008e-10       8.536232233581e-16       1.695990643278e-13       0.000000000000e+00       5.201677871447e-10      -9.679432713957e-11       2.068890914037e-15 
   25       1.349673147057e-10       8.756702916685e-16       1.791632992044e-13       0.000000000000e+00       4.810894494805e-10      -8.980545259948e-11      -1.260405869909e-14 
   26       1.350673864906e-10       9.462270688947e-16       1.882913817573e-13       0.000000000000e+00       4.460197980698e-10      -8.344585681416e-11      -2.477673770517e-14 
   27       1.352979314896e-10       1.045450081050e-15       1.966490865505e-13       0.000000000000e+00       4.144942731163e-10      -7.767018505129e-11      -3.403510997349e-14 
   28       1.356630203988e-10       1.149311790111e-15       2.040032404084e-13       0.000000000000e+00       3.859230870754e-10      -7.242671281024e-11      -4.019201927216e-14 
   29       1.361644082577e-10       1.248083413183e-15       2.102894597521e-13       0.000000000000e+00       3.601338938480e-10      -6.769010855343e-11      -4.330606665341e-14 
   30       1.367803528391e-10       1.335367674955e-15       2.155199362002e-13       0.000000000000e+00       3.368227470182e-10      -6.339419549866e-11      -4.365266115259e-14 
   31       1.374714282340e-10       1.406496163121e-15       2.197561262415e-13       0.000000000000e+00       3.154805333617e-10      -5.943589022852e-11      -4.167009543795e-14 
   32       1.382362150709e-10       1.469007422505e-15       2.231433014781e-13       0.000000000000e+00       2.959808480660e-10      -5.579570743724e-11      -3.778942674737e-14 
   33       1.390724949645e-10       1.536418449790e-15       2.258966300656e-13       0.000000000000e+00       2.781716693493e-10      -5.245510774068e-11      -3.256742956984e-14 
   34       1.399678147431e-10       1.622992466140e-15       2.282661306814e-13       0.000000000000e+00       2.617862465131e-10      -4.937458932226e-11      -2.666133373332e-14 
   35       1.409234956314e-10       1.734052536065e-15       2.304293659863e-13       0.000000000000e+00       2.467302646914e-10      -4.653775760284e-11      -2.053813319475e-14 
   36       1.419366162629e-10       1.872370957874e-15       2.325653150736e-13       0.000000000000e+00       2.328722430222e-10      -4.391847769907e-11      -1.467729350898e-14 
   37       1.429977254443e-10       2.039848707521e-15       2.348493675261e-13       0.000000000000e+00       2.200192597809e-10      -4.147953021770e-11      -9.565685175589e-15 
   38       1.441089374403e-10       2.234577312009e-15       2.373335294283e-13       0.000000000000e+00       2.081321352476e-10      -3.921517417932e-11      -5.397025260146e-15 
   39       1.452702191799e-10       2.452700155786e-15       2.400261384417e-13       0.000000000000e+00       1.971680415003e-10      -3.712019229521e-11      -2.274989799677e-15 
   40       1.464735432000e-10       2.689086947789e-15       2.429222428007e-13       0.000000000000e+00       1.870152448385e-10      -3.517711623263e-11      -2.917747652013e-16 
   41       1.477073638726e-10       2.938728185765e-15       2.459894322040e-13       0.000000000000e+00       1.775308702254e-10      -3.336239603370e-11       5.060395196854e-16 
   42       1.489736824218e-10       3.201674269658e-15       2.491229969700e-13       0.000000000000e+00       1.686833438346e-10      -3.166991557825e-11       2.296122625370e-16 
   43       1.502752181534e-10       3.479557365247e-15       2.521739213888e-13       0.000000000000e+00       1.604462632482e-10      -3.009331751391e-11      -9.252277108329e-16 
   44       1.516102137024e-10       3.774262792584e-15       2.549582773041e-13       0.000000000000e+00       1.527557459231e-10      -2.861884707003e-11      -2.703758671333e-15 
   45       1.529746568040e-10       4.087404979931e-15       2.572799207708e-13       0.000000000000e+00       1.455325591891e-10      -2.722999534425e-11      -4.828906340225e-15 
   46       1.543707331234e-10       4.418534038262e-15       2.590119078415e-13       0.000000000000e+00       1.387633926350e-10      -2.592445076839e-11      -7.132764688485e-15 
   47       1.558001819285e-10       4.766417899478e-15       2.600356405021e-13       0.000000000000e+00       1.324388351383e-10      -2.470122923927e-11      -9.457989790742e-15 
   48       1.572616081528e-10       5.129518466366e-15       2.602172961243e-13       0.000000000000e+00       1.265289041571e-10      -2.355561928710e-11      -1.161950119767e-14 
   49       1.587502122528e-10       5.505975214174e-15       2.594070412883e-13       0.000000000000e+00       1.209815236262e-10      -2.247890310009e-11      -1.340303790298e-14 
   50       1.602600160977e-10       5.894183975982e-15       2.574703346501e-13       0.000000000000e+00       1.157378975386e-10      -2.146102511508e-11      -1.461221435378e-14 
   51       1.617918796547e-10       6.294756554458e-15       2.543936763929e-13       0.000000000000e+00       1.107870815139e-10      -2.050009896137e-11      -1.522809656148e-14 
   52       1.633471933842e-10       6.709064678886e-15       2.502062043134e-13       0.000000000000e+00       1.061235930153e-10      -1.959499884325e-11      -1.529044502275e-14 
   53       1.649254233356e-10       7.138702645876e-15       2.449508202929e-13       0.000000000000e+00       1.017311005525e-10      -1.874250057748e-11      -1.485381888391e-14 
   54       1.665239584645e-10       7.585498929595e-15       2.386849141921e-13       0.000000000000e+00       9.758169666898e-11      -1.793714132684e-11      -1.398841426291e-14 
   55       1.681395630941e-10       8.051248185800e-15       2.314720994053e-13       0.000000000000e+00       9.364424165645e-11      -1.717284547807e-11      -1.277744440683e-14 
   56       1.697735066137e-10       8.536802703497e-15       2.233533569390e-13       0.000000000000e+00       8.991348748285e-11      -1.644859659565e-11      -1.130659750879e-14 
   57       1.714274406725e-10       9.042775586596e-15       2.143699908623e-13       0.000000000000e+00       8.638691545347e-11      -1.576392881547e-11      -9.673428373264e-15 
   58       1.731018175032e-10       9.569801286279e-15       2.045723541621e-13       0.000000000000e+00       8.305593389463e-11      -1.511721425133e-11      -7.991275402646e-15 
   59       1.747957997778e-10       1.011853631748e-14       1.940202224428e-13       0.000000000000e+00       7.990550454583e-11      -1.450559153937e-11      -6.389964185573e-15 
   60       1.765071704637e-10       1.068965997537e-14       1.827831676267e-13       0.000000000000e+00       7.691376895201e-11      -1.392489438244e-11      -5.016511085227e-15 
   61       1.782334632734e-10       1.128373333201e-14       1.709203578910e-13       0.000000000000e+00       7.405803800330e-11      -1.337079520497e-11      -4.002111439150e-15 
   62       1.799758544567e-10       1.190073762107e-14       1.584138136794e-13       0.000000000000e+00       7.133517679215e-11      -1.284269774604e-11      -3.352853601518e-15 
   63       1.817359885766e-10       1.254043303844e-14       1.452207652436e-13       0.000000000000e+00       6.874515320601e-11      -1.234059537771e-11      -3.035611387165e-15 
   64       1.835147846020e-10       1.320248761364e-14       1.312926308575e-13       0.000000000000e+00       6.628491023053e-11      -1.186390084530e-11      -3.009235927629e-15 
   65       1.853123844923e-10       1.388647342961e-14       1.165747377279e-13       0.000000000000e+00       6.394819423967e-11      -1.141141336631e-11      -3.224189495677e-15 
   66       1.871281017817e-10       1.459186284251e-14       1.010060429047e-13       0.000000000000e+00       6.172538328572e-11      -1.098128572937e-11      -3.622179329826e-15 
   67       1.889603701640e-10       1.531802470160e-14       8.451885419122e-14       0.000000000000e+00       5.960331538943e-11      -1.057099139325e-11      -4.135791458864e-15 
   68       1.908075319632e-10       1.606438131770e-14       6.704932031546e-14       0.000000000000e+00       5.756876900435e-11      -1.017799257191e-11      -4.698354066091e-15 
   69       1.926705039986e-10       1.683092475247e-14       4.857199356635e-14       0.000000000000e+00       5.562010716506e-11      -9.801975229971e-12      -5.276666883508e-15 
   70       1.945505620111e-10       1.761779883270e-14       2.907180126632e-14       0.000000000000e+00       5.375769512341e-11      -9.443009932067e-12      -5.844276291880e-15 
   71       1.964485191725e-10       1.842514798293e-14       8.533892564060e-15       0.000000000000e+00       5.198038003380e-11      -9.100876221806e-12      -6.371729886978e-15 
   72       1.983646961504e-10       1.925311755646e-14      -1.305636522639e-14       0.000000000000e+00       5.028541264920e-11      -8.775047648738e-12      -6.826471929159e-15 
   73       2.002988911729e-10       2.010185416639e-14      -3.571339028662e-14       0.000000000000e+00       4.866836901727e-11      -8.464676795350e-12      -7.172738792942e-15 
   74       2.022503500940e-10       2.097150601668e-14      -5.945138995480e-14       0.000000000000e+00       4.712307217638e-11      -8.168580304066e-12      -7.371454416590e-15 
   75       2.042177364581e-10       2.186222323316e-14      -8.428436438662e-14       0.000000000000e+00       4.564151385172e-11      -7.885223904235e-12      -7.380125751690e-15 
   76       2.061997094993e-10       2.277411347332e-14      -1.102198604742e-13       0.000000000000e+00       4.421582930039e-11      -7.613086714784e-12      -7.166621950193e-15 
   77       2.081968459963e-10       2.370709867852e-14      -1.372389105459e-13       0.000000000000e+00       4.284481069666e-11      -7.351863945707e-12      -6.753643918504e-15 
   78       2.102100161192e-10       2.466103267995e-14      -1.653124250464e-13       0.000000000000e+00       4.152844474979e-11      -7.101457331016e-12      -6.182211729600e-15 
   79       2.122397893994e-10       2.563574302593e-14      -1.944069952578e-13       0.000000000000e+00       4.026592930792e-11      -6.861608230444e-12      -5.498677520587e-15 
   80       2.142864172610e-10       2.663103039596e-14      -2.244847688047e-13       0.000000000000e+00       3.905563715562e-11      -6.631890433790e-12      -4.754905639561e-15 
   81       2.163498155516e-10       2.764666801467e-14      -2.555033251587e-13       0.000000000000e+00       3.789507981146e-11      -6.411702965268e-12      -4.008452792473e-15 
   82       2.184295470733e-10       2.868240106586e-14      -2.874155511438e-13       0.000000000000e+00       3.678087132552e-11      -6.200262887852e-12      -3.322748189985e-15 
   83       2.205248041142e-10       2.973794610643e-14      -3.201695164412e-13       0.000000000000e+00       3.570869207700e-11      -5.996598107631e-12      -2.767273694335e-15 
   84       2.226348324066e-10       3.081301742627e-14      -3.537204333256e-13       0.000000000000e+00       3.467433413191e-11      -5.799789814042e-12      -2.401354107517e-15 
   85       2.247603220227e-10       3.190741243216e-14      -3.880690866246e-13       0.000000000000e+00       3.367711573267e-11      -5.609761741604e-12      -2.222045864264e-15 
   86       2.269022161034e-10       3.302093941012e-14      -4.232295759981e-13       0.000000000000e+00       3.271696911502e-11      -5.426609166547e-12      -2.207899511804e-15 
   87       2.290612800310e-10       3.415339170688e-14      -4.592178755932e-13       0.000000000000e+00       3.179339151686e-11      -5.250357948470e-12      -2.334487559120e-15 
   88       2.312380913786e-10       3.530454759679e-14      -4.960519126454e-13       0.000000000000e+00       3.090542715329e-11      -5.080961530252e-12      -2.574309164004e-15 
   89       2.334330298603e-10       3.647417014866e-14      -5.337516460795e-13       0.000000000000e+00       3.005164919167e-11      -4.918297937963e-12      -2.896694820107e-15 
   90       2.356462672814e-10       3.766200709262e-14      -5.723391451113e-13       0.000000000000e+00       2.923014172660e-11      -4.762166780768e-12      -3.267711043992e-15 
   91       2.378777574885e-10       3.886779068701e-14      -6.118386678483e-13       0.000000000000e+00       2.843848175502e-11      -4.612286250841e-12      -3.650065062185e-15 
   92       2.401272263190e-10       4.009123758523e-14      -6.522767398918e-13       0.000000000000e+00       2.767372115119e-11      -4.468290123274e-12      -4.003009498225e-15 
   93       2.423944005410e-10       4.133204502113e-14      -6.936752463135e-13       0.000000000000e+00       2.693308512279e-11      -4.329812728464e-12      -4.290891366611e-15 
   94       2.446797558856e-10       4.258987899822e-14      -7.360293483857e-13       0.000000000000e+00       2.621622689462e-11      -4.196765004527e-12      -4.510476873113e-15 
   95       2.469838634605e-10       4.386438406969e-14      -7.793263753978e-13       0.000000000000e+00       2.552328038098e-11      -4.069094609506e-12      -4.667579164707e-15 
   96       2.493071541068e-10       4.515518668040e-14      -8.235524982720e-13       0.000000000000e+00       2.485416583937e-11      -3.946699879768e-12      -4.768803233921e-15 
   97       2.516499116295e-10       4.646189498319e-14      -8.686927122607e-13       0.000000000000e+00       2.420858168048e-11      -3.829428037497e-12      -4.821569264861e-15 
   98       2.540122660279e-10       4.778409865526e-14      -9.147308196432e-13       0.000000000000e+00       2.358599627830e-11      -3.717073398183e-12      -4.834135979255e-15 
   99       2.563941867265e-10       4.912136871441e-14      -9.616494124230e-13       0.000000000000e+00       2.298563978014e-11      -3.609375578121e-12      -4.815623982479e-15 
  100       2.587954758057e-10       5.047325733545e-14      -1.009429855025e-12       0.000000000000e+00       2.240649591667e-11      -3.506017701901e-12      -4.776039109596e-15 
  101       2.612157612319e-10       5.183929766652e-14      -1.058052266991e-12       0.000000000000e+00       2.184729381203e-11      -3.406624609899e-12      -4.726295771389e-15 
  102       2.636544900886e-10       5.321900364535e-14      -1.107495505680e-12       0.000000000000e+00       2.130649979382e-11      -3.310761065774e-12      -4.678240300396e-15 
  103       2.661109218067e-10       5.461186981568e-14      -1.157737148962e-12       0.000000000000e+00       2.078230920318e-11      -3.217929963959e-12      -4.644674296944e-15 
  104       2.685843843723e-10       5.601736001864e-14      -1.208754481114e-12       0.000000000000e+00       2.027305600751e-11      -3.127681113650e-12      -4.636621603113e-15 
  105       2.710750969466e-10       5.743487212295e-14      -1.260527639455e-12       0.000000000000e+00       1.977852229581e-11      -3.039958187559e-12      -4.654658475309e-15 
  106       2.735834462669e-10       5.886376816567e-14      -1.313036862498e-12       0.000000000000e+00       1.929879123217e-11      -2.954795517320e-12      -4.696450315934e-15 
  107       2.761097297606e-10       6.030338474947e-14      -1.366261518504e-12       0.000000000000e+00       1.883384149416e-11      -2.872211131796e-12      -4.759396601866e-15 
