# dimensionless total lensed [l(l+1)/2pi] C_l's
# for l=2 to 2500, i.e. number of multipoles equal to 2499
#
# -> if you prefer output in CAMB/HealPix/LensPix units/order, set 'format' to 'camb' in input file
# -> if you don't want to see such a header, set 'headers' to 'no' in input file
# -> for CMB lensing (phi), these are C_l^phi-phi for the lensing potential.
#    Remember the conversion factors:
#    C_l^dd (deflection) = l(l+1) C_l^phi-phi
#    C_l^gg (shear/convergence) = 1/4 (l(l+1))^2 C_l^phi-phi
#
# 1:l     2:TT                     3:EE                     4:TE                     5:BB                     6:phiphi                 7:TPhi                   8:Ephi               
    2       5.960182440024e-10       3.371951674941e-15       8.140137698395e-13       3.632844074222e-19       2.282681064453e-08      -2.980319973289e-09      -2.235558111777e-12 
    3       4.317900494017e-10       6.756795983284e-15       8.096724914948e-13       7.269478364168e-19       1.452414959838e-08      -1.937168427972e-09      -1.867912385104e-12 
    4       3.439069695685e-10       1.029835181715e-14       7.854682814849e-13       1.212412737605e-18       1.013508169887e-08      -1.389815450714e-09      -1.603360715705e-12 
    5       2.896288492462e-10       1.300684663872e-14       7.429070690969e-13       1.820158904024e-18       7.526654029292e-09      -1.059939749161e-09      -1.373330171800e-12 
    6       2.528596280069e-10       1.427619145343e-14       6.847222581921e-13       2.550764530756e-18       5.846385061000e-09      -8.419888354727e-10      -1.155255353544e-12 
    7       2.264665098911e-10       1.401271902528e-14       6.181611069608e-13       3.404892608401e-18       4.699718613009e-09      -6.889511153684e-10      -9.500635607342e-13 
    8       2.067698276669e-10       1.249740540584e-14       5.487931903075e-13       4.383275334046e-18       3.879471758080e-09      -5.764628332655e-10      -7.606161351862e-13 
    9       1.916271968492e-10       1.021680624248e-14       4.806470464852e-13       5.486696918866e-18       3.268169675425e-09      -4.907444244228e-10      -5.892665360326e-13 
   10       1.797532751605e-10       7.696339814243e-15       4.163573600698e-13       6.715975214983e-18       2.795824288862e-09      -4.235367559656e-10      -4.376626450758e-13 
   11       1.703823352755e-10       5.373166750925e-15       3.575045118623e-13       8.071942618875e-18       2.081449176724e-09      -3.499714104089e-10      -3.075182100919e-13 
   12       1.628434442136e-10       3.526545134459e-15       3.051663689459e-13       9.555426733308e-18       1.800411282166e-09      -3.070693732565e-10      -1.983423468324e-13 
   13       1.567689683901e-10       2.263858280796e-15       2.599891969682e-13       1.116723128371e-17       1.572279908062e-09      -2.714773600210e-10      -1.090526210554e-13 
   14       1.518812413200e-10       1.548726577245e-15       2.222502647543e-13       1.290811778721e-17       1.384458672319e-09      -2.417713217345e-10      -3.973563232231e-14 
   15       1.479073099795e-10       1.252602277182e-15       1.920650717510e-13       1.477878846268e-17       1.227922508305e-09      -2.165533530062e-10       1.159973016861e-14 
   16       1.447277478768e-10       1.211507797193e-15       1.692759282059e-13       1.677987084789e-17       1.096048789387e-09      -1.950288945111e-10       4.629795436224e-14 
   17       1.421621067608e-10       1.273634567463e-15       1.534277786607e-13       1.891190455498e-17       9.839011865267e-10      -1.764229927541e-10       6.666458329980e-14 
   18       1.400961361153e-10       1.325353857416e-15       1.438138188929e-13       2.117532969564e-17       8.872549835667e-10      -1.602672959808e-10       7.500320361054e-14 
   19       1.385099813326e-10       1.324220113497e-15       1.398742096267e-13       2.357048327108e-17       8.046090730301e-10      -1.463196784989e-10       7.339064929538e-14 
   20       1.372805247616e-10       1.251716626518e-15       1.404892294968e-13       2.609758470852e-17       7.322907465687e-10      -1.339608243184e-10       6.487228438999e-14 
   21       1.363682080374e-10       1.133049049114e-15       1.447736723539e-13       2.875674872570e-17       6.690157454561e-10      -1.230075731642e-10       5.151623888063e-14 
   22       1.357009264252e-10       1.013444488008e-15       1.516074387624e-13       3.154796972786e-17       6.132118615627e-10      -1.132456681024e-10       3.547573396225e-14 
   23       1.352764059769e-10       9.243681717687e-16       1.601610945610e-13       3.447114741382e-17       5.640156927538e-10      -1.045689479221e-10       1.844085068145e-14 
   24       1.350700815652e-10       8.912861364009e-16       1.695408839935e-13       3.752607094355e-17       5.201677871447e-10      -9.679432713957e-11       2.068890914037e-15 
   25       1.350491927541e-10       9.165348551290e-16       1.790986388958e-13       4.071246156053e-17       4.810894494805e-10      -8.980545259948e-11      -1.260405869909e-14 
   26       1.351554825254e-10       9.904227277559e-16       1.882198900338e-13       4.402995094350e-17       4.460197980698e-10      -8.344585681416e-11      -2.477673770517e-14 
   27       1.353923078384e-10       1.093105019539e-15       1.965703757524e-13       4.747812729029e-17       4.144942731163e-10      -7.767018505129e-11      -3.403510997349e-14 
   28       1.357637226507e-10       1.200552820928e-15       2.039168732900e-13       5.105652436740e-17       3.859230870754e-10      -7.242671281024e-11      -4.019201927216e-14 
   29       1.362714707535e-10       1.303036091106e-15       2.101949347907e-13       5.476471035043e-17       3.601338938480e-10      -6.769010855343e-11      -4.330606665341e-14 
   30       1.368938032672e-10       1.394156256390e-15       2.154166723127e-13       5.860222541786e-17       3.368227470182e-10      -6.339419549866e-11      -4.365266115259e-14 
   31       1.375912921792e-10       1.469243608310e-15       2.196434487231e-13       6.256859473486e-17       3.154805333617e-10      -5.943589022852e-11      -4.167009543795e-14 
   32       1.383625211778e-10       1.535835771560e-15       2.230204344482e-13       6.666346440191e-17       2.959808480660e-10      -5.579570743724e-11      -3.778942674737e-14 
   33       1.392052805312e-10       1.607448983354e-15       2.257626831160e-13       7.088652376437e-17       2.781716693493e-10      -5.245510774068e-11      -3.256742956984e-14 
   34       1.401071308529e-10       1.698345876983e-15       2.281200874502e-13       7.523750743133e-17       2.617862465131e-10      -4.937458932226e-11      -2.666133373332e-14 
   35       1.410694095404e-10       1.813849426776e-15       2.302700886455e-13       7.971630578925e-17       2.467302646914e-10      -4.653775760284e-11      -2.053813319475e-14 
   36       1.420892162828e-10       1.956732160818e-15       2.323915374167e-13       8.432290594802e-17       2.328722430222e-10      -4.391847769907e-11      -1.467729350898e-14 
   37       1.431571245906e-10       2.128895576457e-15       2.346596922510e-13       8.905738850207e-17       2.200192597809e-10      -4.147953021770e-11      -9.565685175589e-15 
   38       1.442752690019e-10       2.328432134449e-15       2.371264559289e-13       9.391998791963e-17       2.081321352476e-10      -3.921517417932e-11      -5.397025260146e-15 
   39       1.454436381469e-10       2.551486525586e-15       2.398000701529e-13       9.891106772548e-17       1.971680415003e-10      -3.712019229521e-11      -2.274989799677e-15 
   40       1.466542301049e-10       2.792930137671e-15       2.426754866977e-13       1.040311167542e-16       1.870152448385e-10      -3.517711623263e-11      -2.917747652013e-16 
   41       1.478955252576e-10       3.047755435713e-15       2.457202093223e-13       1.092807414752e-16       1.775308702254e-10      -3.336239603370e-11       5.060395196854e-16 
   42       1.491695394002e-10       3.316014729315e-15       2.488294896793e-13       1.146606165528e-16       1.686833438346e-10      -3.166991557825e-11       2.296122625370e-16 
   43       1.504790033275e-10       3.599342312180e-15       2.518542963135e-13       1.201715345834e-16       1.604462632482e-10      -3.009331751391e-11      -9.252277108329e-16 
   44       1.518221712635e-10       3.899625967611e-15       2.546106994953e-13       1.258144305061e-16       1.527557459231e-10      -2.861884707003e-11      -2.703758671333e-15 
   45       1.531950396904e-10       4.218482587496e-15       2.569025737351e-13       1.315903109232e-16       1.455325591891e-10      -2.722999534425e-11      -4.828906340225e-15 
   46       1.545997904313e-10       4.555463580913e-15       2.586030308566e-13       1.374999967186e-16       1.387633926350e-10      -2.592445076839e-11      -7.132764688485e-15 
   47       1.560381530649e-10       4.909337859735e-15       2.595935555265e-13       1.435443180348e-16       1.324388351383e-10      -2.470122923927e-11      -9.457989790742e-15 
   48       1.575087194108e-10       5.278568308364e-15       2.597404315578e-13       1.497241907030e-16       1.265289041571e-10      -2.355561928710e-11      -1.161950119767e-14 
   49       1.590066731669e-10       5.661295382668e-15       2.588939570183e-13       1.560406202301e-16       1.209815236262e-10      -2.247890310009e-11      -1.340303790298e-14 
   50       1.605260156465e-10       6.055915450948e-15       2.569197406161e-13       1.624945843367e-16       1.157378975386e-10      -2.146102511508e-11      -1.461221435378e-14 
   51       1.620675824646e-10       6.463038936426e-15       2.538044266461e-13       1.690866337382e-16       1.107870815139e-10      -2.050009896137e-11      -1.522809656148e-14 
   52       1.636327355532e-10       6.884035340154e-15       2.495773111526e-13       1.758171898905e-16       1.061235930153e-10      -1.959499884325e-11      -1.529044502275e-14 
   53       1.652209079781e-10       7.320496265753e-15       2.442814764855e-13       1.826866552784e-16       1.017311005525e-10      -1.874250057748e-11      -1.485381888391e-14 
   54       1.668294510410e-10       7.774247006204e-15       2.379745161164e-13       1.896954116865e-16       9.758169666898e-11      -1.793714132684e-11      -1.398841426291e-14 
   55       1.684550912071e-10       8.247078444255e-15       2.307202484522e-13       1.968437250594e-16       9.364424165645e-11      -1.717284547807e-11      -1.277744440683e-14 
   56       1.700990750018e-10       8.739838216731e-15       2.225597872613e-13       2.041314363652e-16       8.991348748285e-11      -1.644859659565e-11      -1.130659750879e-14 
   57       1.717630344028e-10       9.253134071107e-15       2.135345540925e-13       2.115581909075e-16       8.638691545347e-11      -1.576392881547e-11      -9.673428373264e-15 
   58       1.734474007777e-10       9.787594445847e-15       2.036950252229e-13       2.191235197559e-16       8.305593389463e-11      -1.511721425133e-11      -7.991275402646e-15 
   59       1.751513147063e-10       1.034386916032e-14       1.931011053969e-13       2.268268343775e-16       7.990550454583e-11      -1.450559153937e-11      -6.389964185573e-15 
   60       1.768725358018e-10       1.092263010473e-14       1.818225015632e-13       2.346674212687e-16       7.691376895201e-11      -1.392489438244e-11      -5.016511085227e-15 
   61       1.786085788589e-10       1.152443099903e-14       1.699185022617e-13       2.426444802662e-16       7.405803800330e-11      -1.337079520497e-11      -4.002111439150e-15 
   62       1.803606243117e-10       1.214924832431e-14       1.573711665080e-13       2.507572616751e-16       7.133517679215e-11      -1.284269774604e-11      -3.352853601518e-15 
   63       1.821303294915e-10       1.279683810386e-14       1.441377333932e-13       2.590049505342e-16       6.874515320601e-11      -1.234059537771e-11      -3.035611387165e-15 
   64       1.839186295035e-10       1.346686403469e-14       1.301696189525e-13       2.673866217486e-16       6.628491023053e-11      -1.186390084530e-11      -3.009235927629e-15 
   65       1.857256859589e-10       1.415889370579e-14       1.154121364603e-13       2.759012361079e-16       6.394819423967e-11      -1.141141336631e-11      -3.224189495677e-15 
   66       1.875508357072e-10       1.487239481647e-14       9.980421672527e-14       2.845476363028e-16       6.172538328572e-11      -1.098128572937e-11      -3.622179329826e-15 
   67       1.893925395687e-10       1.560673139459e-14       8.327812838440e-14       2.933245429430e-16       5.960331538943e-11      -1.057099139325e-11      -4.135791458864e-15 
   68       1.912491681811e-10       1.636132172545e-14       6.576998436750e-14       3.022307670855e-16       5.756876900435e-11      -1.017799257191e-11      -4.698354066091e-15 
   69       1.931216590434e-10       1.713615775131e-14       4.725435862146e-14       3.112659067288e-16       5.562010716506e-11      -9.801975229971e-12      -5.276666883508e-15 
   70       1.950113082331e-10       1.793138460582e-14       2.771621339871e-14       3.204297849409e-16       5.375769512341e-11      -9.443009932067e-12      -5.844276291880e-15 
   71       1.969189516057e-10       1.874714856314e-14       7.140729931436e-15       3.297222473619e-16       5.198038003380e-11      -9.100876221806e-12      -6.371729886978e-15 
   72       1.988449349363e-10       1.958359739205e-14      -1.448669541263e-14       3.391431637592e-16       5.028541264920e-11      -8.775047648738e-12      -6.826471929159e-15 
   73       2.007890840617e-10       2.044088071008e-14      -3.718045497432e-14       3.486924295823e-16       4.866836901727e-11      -8.464676795350e-12      -7.172738792942e-15 
   74       2.027506750221e-10       2.131915033760e-14      -6.095473364719e-14       3.583699675173e-16       4.712307217638e-11      -8.168580304066e-12      -7.371454416590e-15 
   75       2.047284042032e-10       2.221856065194e-14      -8.582351272169e-14       3.681757290420e-16       4.564151385172e-11      -7.885223904235e-12      -7.380125751690e-15 
   76       2.067209574216e-10       2.313922336563e-14      -1.117942887889e-13       3.781097917879e-16       4.421582930039e-11      -7.613086714784e-12      -7.166621950193e-15 
   77       2.087289029912e-10       2.408106155793e-14      -1.388478996183e-13       3.881726686865e-16       4.284481069666e-11      -7.351863945707e-12      -6.753643918504e-15 
   78       2.107530912241e-10       2.504392954491e-14      -1.669550093238e-13       3.983650582839e-16       4.152844474979e-11      -7.101457331016e-12      -6.182211729600e-15 
   79       2.127940688205e-10       2.602765552290e-14      -1.960819439275e-13       4.086877573975e-16       4.026592930792e-11      -6.861608230444e-12      -5.498677520587e-15 
   80       2.148520612921e-10       2.703204098797e-14      -2.261905663267e-13       4.191416646353e-16       3.905563715562e-11      -6.631890433790e-12      -4.754905639561e-15 
   81       2.169269553858e-10       2.805686015552e-14      -2.572381512599e-13       4.297277839151e-16       3.789507981146e-11      -6.411702965268e-12      -4.008452792473e-15 
   82       2.190182815077e-10       2.910185937981e-14      -2.891772602732e-13       4.404472279846e-16       3.678087132552e-11      -6.200262887852e-12      -3.322748189985e-15 
   83       2.211251961466e-10       3.016675657346e-14      -3.219556166864e-13       4.513012219401e-16       3.570869207700e-11      -5.996598107631e-12      -2.767273694335e-15 
   84       2.232469085646e-10       3.125126582890e-14      -3.555280840757e-13       4.622908661834e-16       3.467433413191e-11      -5.799789814042e-12      -2.401354107517e-15 
   85       2.253840806433e-10       3.235517724372e-14      -3.898951572180e-13       4.734163724314e-16       3.367711573267e-11      -5.609761741604e-12      -2.222045864264e-15 
   86       2.275376279560e-10       3.347828932596e-14      -4.250706525550e-13       4.846777069167e-16       3.271696911502e-11      -5.426609166547e-12      -2.207899511804e-15 
   87       2.297082861739e-10       3.462038481423e-14      -4.610702492510e-13       4.960748191737e-16       3.179339151686e-11      -5.250357948470e-12      -2.334487559120e-15 
   88       2.318966009564e-10       3.578123052082e-14      -4.979115675798e-13       5.076076415153e-16       3.090542715329e-11      -5.080961530252e-12      -2.574309164004e-15 
   89       2.341029178414e-10       3.696057717482e-14      -5.356142473114e-13       5.192760885086e-16       3.005164919167e-11      -4.918297937963e-12      -2.896694820107e-15 
   90       2.363273721360e-10       3.815815926521e-14      -5.742000260987e-13       5.310800564517e-16       2.923014172660e-11      -4.762166780768e-12      -3.267711043992e-15 
   91       2.385698788066e-10       3.937369488393e-14      -6.136928178648e-13       5.430194228501e-16       2.843848175502e-11      -4.612286250841e-12      -3.650065062185e-15 
   92       2.408301223695e-10       4.060688556903e-14      -6.541187911888e-13       5.550940458927e-16       2.767372115119e-11      -4.468290123274e-12      -4.003009498225e-15 
   93       2.431077965427e-10       4.185741480189e-14      -6.954995076254e-13       5.673036844493e-16       2.693308512279e-11      -4.329812728464e-12      -4.290891366611e-15 
   94       2.454033863908e-10       4.312494358132e-14      -7.378299858960e-13       5.796477454348e-16       2.621622689462e-11      -4.196765004527e-12      -4.510476873113e-15 
   95       2.477174856703e-10       4.440911389060e-14      -7.810974681282e-13       5.921254973035e-16       2.552328038098e-11      -4.069094609506e-12      -4.667579164707e-15 
   96       2.500505509584e-10       4.570954981102e-14      -8.252880493113e-13       6.047361445498e-16       2.485416583937e-11      -3.946699879768e-12      -4.768803233921e-15 
   97       2.524028949714e-10       4.702585734649e-14      -8.703866604180e-13       6.174788260934e-16       2.420858168048e-11      -3.829428037497e-12      -4.821569264861e-15 
   98       2.547746798840e-10       4.835762424816e-14      -9.163770515261e-13       6.303526136650e-16       2.358599627830e-11      -3.717073398183e-12      -4.834135979255e-15 
   99       2.571659106474e-10       4.970441983905e-14      -9.632417749399e-13       6.433565101911e-16       2.298563978014e-11      -3.609375578121e-12      -4.815623982479e-15 
  100       2.595764283093e-10       5.106579483871e-14      -1.010962168312e-12       6.564894481800e-16       2.240649591667e-11      -3.506017701901e-12      -4.776039109596e-15 
  101       2.620059033314e-10       5.244128118778e-14      -1.059518337764e-12       6.697502881068e-16       2.184729381203e-11      -3.406624609899e-12      -4.726295771389e-15 
  102       2.644538289094e-10       5.383039187267e-14      -1.108889141011e-12       6.831378167988e-16       2.130649979382e-11      -3.310761065774e-12      -4.678240300396e-15 
  103       2.669195142912e-10       5.523262075015e-14      -1.159052170479e-12       6.966507458206e-16       2.078230920318e-11      -3.217929963959e-12      -4.644674296944e-15 
  104       2.694023292618e-10       5.664743198811e-14      -1.209984690846e-12       7.102880692349e-16       2.027305600751e-11      -3.127681113650e-12      -4.636621603113e-15 
  105       2.719024896010e-10       5.807422714083e-14      -1.261666632246e-12       7.240501953997e-16       1.977852229581e-11      -3.039958187559e-12      -4.654658475309e-15 
  106       2.744203657680e-10       5.951237327842e-14      -1.314077971818e-12       7.379379657619e-16       1.929879123217e-11      -2.954795517320e-12      -4.696450315934e-15 
  107       2.769562373366e-10       6.096121268752e-14      -1.367197809086e-12       7.519523114412e-16       1.883384149416e-11      -2.872211131796e-12      -4.759396601866e-15 
