# dimensionless total [l(l+1)/2pi] C_l's
# for l=2 to 3000, i.e. number of multipoles equal to 2999
#
# -> if you prefer output in CAMB/HealPix/LensPix units/order, set 'format' to 'camb' in input file
# -> if you don't want to see such a header, set 'headers' to 'no' in input file
# -> for CMB lensing (phi), these are C_l^phi-phi for the lensing potential.
#    Remember the conversion factors:
#    C_l^dd (deflection) = l(l+1) C_l^phi-phi
#    C_l^gg (shear/convergence) = 1/4 (l(l+1))^2 C_l^phi-phi
#
# 1:l     2:TT                     3:EE                     4:TE                     5:BB                     6:phiphi                 7:TPhi                   8:Ephi               
    2       5.960172170663e-10       3.371588390158e-15       8.140137806079e-13       0.000000000000e+00       2.282682539000e-08      -2.980315111874e-09      -2.235558110839e-12 
    3       4.317883983269e-10       6.756069031954e-15       8.096725397483e-13       0.000000000000e+00       1.452416595715e-08      -1.937164083656e-09      -1.867912384895e-12 
    4       3.439045375206e-10       1.029713938725e-14       7.854684191271e-13       0.000000000000e+00       1.013509657782e-08      -1.389811923322e-09      -1.603360715653e-12 
    5       2.896253690585e-10       1.300502642096e-14       7.429073795330e-13       0.000000000000e+00       7.526666150528e-09      -1.059936499366e-09      -1.373330171710e-12 
    6       2.528548875590e-10       1.427364052806e-14       6.847228610848e-13       0.000000000000e+00       5.846394830741e-09      -8.419857524786e-10      -1.155255353603e-12 
    7       2.264602681098e-10       1.400931375747e-14       6.181621616885e-13       0.000000000000e+00       4.699726929225e-09      -6.889483662601e-10      -9.500635612236e-13 
    8       2.067618259720e-10       1.249302135232e-14       5.487948986115e-13       0.000000000000e+00       3.879478700961e-09      -5.764606472480e-10      -7.606161351796e-13 
    9       1.916171735033e-10       1.021131807246e-14       4.806496505360e-13       0.000000000000e+00       3.268175813954e-09      -4.907426192101e-10      -5.892665348919e-13 
   10       1.797409648595e-10       7.689621247779e-15       4.163611378707e-13       0.000000000000e+00       2.795830095111e-09      -4.235350233940e-10      -4.376626449176e-13 
   11       1.703674008407e-10       5.365090518123e-15       3.575097770373e-13       0.000000000000e+00       2.081453368670e-09      -3.499701554881e-10      -3.075182120906e-13 
   12       1.628255301198e-10       3.516982958759e-15       3.051734702361e-13       0.000000000000e+00       1.800414678678e-09      -3.070684466783e-10      -1.983423471545e-13 
   13       1.567478229731e-10       2.252680889216e-15       2.599985031500e-13       0.000000000000e+00       1.572282617837e-09      -2.714767054133e-10      -1.090526178835e-13 
   14       1.518565955140e-10       1.535803739994e-15       2.222621520287e-13       0.000000000000e+00       1.384460819132e-09      -2.417708411184e-10      -3.973563188565e-14 
   15       1.478787511501e-10       1.237802878226e-15       1.920799302606e-13       0.000000000000e+00       1.227924223575e-09      -2.165530237147e-10       1.159972568270e-14 
   16       1.446948890144e-10       1.194699936355e-15       1.692941615095e-13       0.000000000000e+00       1.096050170624e-09      -1.950287166174e-10       4.629795359292e-14 
   17       1.421247202285e-10       1.254685693419e-15       1.534497797650e-13       0.000000000000e+00       9.839023053929e-10      -1.764229097977e-10       6.666458921413e-14 
   18       1.400539906030e-10       1.304130929201e-15       1.438399523709e-13       0.000000000000e+00       8.872558882152e-10      -1.602672542195e-10       7.500320479337e-14 
   19       1.384627851267e-10       1.300589789236e-15       1.399048383710e-13       0.000000000000e+00       8.046098051446e-10      -1.463196571676e-10       7.339064271784e-14 
   20       1.372279434302e-10       1.225545470023e-15       1.405247198737e-13       0.000000000000e+00       7.322913408967e-10      -1.339608394079e-10       6.487228206022e-14 
   21       1.363100302067e-10       1.104203748618e-15       1.448143645173e-13       0.000000000000e+00       6.690162383502e-10      -1.230076280229e-10       5.151624433185e-14 
   22       1.356370977279e-10       9.817920922849e-16       1.516536396607e-13       0.000000000000e+00       6.132122876003e-10      -1.132457414843e-10       3.547573604090e-14 
   23       1.352067897375e-10       8.897763033105e-16       1.602131165361e-13       0.000000000000e+00       5.640160640497e-10      -1.045690385225e-10       1.844084539983e-14 
   24       1.349944043006e-10       8.536232233581e-16       1.695990587899e-13       0.000000000000e+00       5.201680890113e-10      -9.679446057979e-11       2.068887171663e-15 
   25       1.349672922959e-10       8.756702916685e-16       1.791633025074e-13       0.000000000000e+00       4.810896790716e-10      -8.980561993247e-11      -1.260405663412e-14 
   26       1.350673703331e-10       9.462270688947e-16       1.882913860603e-13       0.000000000000e+00       4.460199749223e-10      -8.344600416197e-11      -2.477673482737e-14 
   27       1.352979750719e-10       1.045450081050e-15       1.966490880000e-13       0.000000000000e+00       4.144944161591e-10      -7.767029195542e-11      -3.403510901599e-14 
   28       1.356630836637e-10       1.149311790111e-15       2.040032439098e-13       0.000000000000e+00       3.859232069616e-10      -7.242681286330e-11      -4.019201761962e-14 
   29       1.361644497046e-10       1.248083413183e-15       2.102894686732e-13       0.000000000000e+00       3.601339975731e-10      -6.769023395306e-11      -4.330606236053e-14 
   30       1.367803635930e-10       1.335367674955e-15       2.155199482461e-13       0.000000000000e+00       3.368228384443e-10      -6.339435579741e-11      -4.365265530639e-14 
   31       1.374714324038e-10       1.406496163121e-15       2.197561339231e-13       0.000000000000e+00       3.154806128808e-10      -5.943607154107e-11      -4.167009191585e-14 
   32       1.382362353871e-10       1.469007422505e-15       2.231432998675e-13       0.000000000000e+00       2.959809153334e-10      -5.579589430517e-11      -3.778942808102e-14 
   33       1.390725399986e-10       1.536418449790e-15       2.258966201035e-13       0.000000000000e+00       2.781717240558e-10      -5.245529083118e-11      -3.256743518727e-14 
   34       1.399678785233e-10       1.622992466140e-15       2.282661188950e-13       0.000000000000e+00       2.617862885257e-10      -4.937476580776e-11      -2.666134012473e-14 
   35       1.409235702658e-10       1.734052536065e-15       2.304293578739e-13       0.000000000000e+00       2.467302947676e-10      -4.653792589502e-11      -2.053813747577e-14 
   36       1.419366960419e-10       1.872370957874e-15       2.325653125702e-13       0.000000000000e+00       2.328722631666e-10      -4.391863591638e-11      -1.467729479610e-14 
   37       1.429978070725e-10       2.039848707521e-15       2.348493690066e-13       0.000000000000e+00       2.200192730857e-10      -4.147967646687e-11      -9.565684568656e-15 
   38       1.441090185496e-10       2.234577312009e-15       2.373335329186e-13       0.000000000000e+00       2.081321444318e-10      -3.921530797151e-11      -5.397023988769e-15 
   39       1.452702980399e-10       2.452700155786e-15       2.400261426574e-13       0.000000000000e+00       1.971680483070e-10      -3.712031522758e-11      -2.274988610802e-15 
   40       1.464736189048e-10       2.689086947789e-15       2.429222473434e-13       0.000000000000e+00       1.870152497552e-10      -3.517723239753e-11      -2.917737908285e-16 
   41       1.477074364437e-10       2.938728185765e-15       2.459894375016e-13       0.000000000000e+00       1.775308725353e-10      -3.336251161416e-11       5.060407173282e-16 
   42       1.489737525958e-10       3.201674269658e-15       2.491230033149e-13       0.000000000000e+00       1.686833428335e-10      -3.167003562537e-11       2.296140227466e-16 
   43       1.502752874039e-10       3.479557365247e-15       2.521739286069e-13       0.000000000000e+00       1.604462586437e-10      -3.009344466579e-11      -9.252253803416e-16 
   44       1.516102843552e-10       3.774262792584e-15       2.549582846628e-13       0.000000000000e+00       1.527557379210e-10      -2.861898099667e-11      -2.703756162630e-15 
   45       1.529747318439e-10       4.087404979931e-15       2.572799270199e-13       0.000000000000e+00       1.455325484672e-10      -2.723013287953e-11      -4.828904411530e-15 
   46       1.543708149535e-10       4.418534038262e-15       2.590119117112e-13       0.000000000000e+00       1.387633799221e-10      -2.592458842665e-11      -7.132764079399e-15 
   47       1.558002718736e-10       4.766417899478e-15       2.600356408717e-13       0.000000000000e+00       1.324388210783e-10      -2.470136400350e-11      -9.457991090361e-15 
   48       1.572617062384e-10       5.129518466366e-15       2.602172920676e-13       0.000000000000e+00       1.265288892803e-10      -2.355574874654e-11      -1.161950480729e-14 
   49       1.587503169717e-10       5.505975214174e-15       2.594070321210e-13       0.000000000000e+00       1.209815083183e-10      -2.247902559599e-11      -1.340304399668e-14 
   50       1.602601245027e-10       5.894183975982e-15       2.574703199771e-13       0.000000000000e+00       1.157378820354e-10      -2.146113984009e-11      -1.461222287006e-14 
   51       1.617919885614e-10       6.294756554458e-15       2.543936561452e-13       0.000000000000e+00       1.107870659868e-10      -2.050020588588e-11      -1.522810730295e-14 
   52       1.633472997442e-10       6.709064678886e-15       2.502061787971e-13       0.000000000000e+00       1.061235775875e-10      -1.959509878192e-11      -1.529045767347e-14 
   53       1.649255243008e-10       7.138702645876e-15       2.449507902437e-13       0.000000000000e+00       1.017310852892e-10      -1.874259531162e-11      -1.485383299543e-14 
   54       1.665240514563e-10       7.585498929595e-15       2.386848808330e-13       0.000000000000e+00       9.758168156734e-11      -1.793723373240e-11      -1.398842923978e-14 
   55       1.681396459117e-10       8.051248185800e-15       2.314720644226e-13       0.000000000000e+00       9.364422665316e-11      -1.717293929901e-11      -1.277745952125e-14 
   56       1.697735776651e-10       8.536802703497e-15       2.233533221857e-13       0.000000000000e+00       8.991347252048e-11      -1.644869503748e-11      -1.130661201260e-14 
   57       1.714274991200e-10       9.042775586596e-15       2.143699582710e-13       0.000000000000e+00       8.638690050179e-11      -1.576403403535e-11      -9.673441535760e-15 
   58       1.731018633808e-10       9.569801286279e-15       2.045723257347e-13       0.000000000000e+00       8.305591895525e-11      -1.511732717435e-11      -7.991286521341e-15 
   59       1.747958341132e-10       1.011853631748e-14       1.940202002395e-13       0.000000000000e+00       7.990548965718e-11      -1.450571166641e-11      -6.389972597566e-15 
   60       1.765071954058e-10       1.068965997537e-14       1.827831537546e-13       0.000000000000e+00       7.691375419446e-11      -1.392501958960e-11      -5.016516179133e-15 
   61       1.782334819317e-10       1.128373333201e-14       1.709203543707e-13       0.000000000000e+00       7.405802349299e-11      -1.337092194949e-11      -4.002112691570e-15 
   62       1.799758697906e-10       1.190073762107e-14       1.584138219172e-13       0.000000000000e+00       7.133516263760e-11      -1.284282261746e-11      -3.352850692207e-15 
   63       1.817360030295e-10       1.254043303844e-14       1.452207858081e-13       0.000000000000e+00       6.874513949391e-11      -1.234071559217e-11      -3.035604254276e-15 
   64       1.835148000057e-10       1.320248761364e-14       1.312926633649e-13       0.000000000000e+00       6.628489702223e-11      -1.186401435609e-11      -3.009224801888e-15 
   65       1.853124019675e-10       1.388647342961e-14       1.165747807217e-13       0.000000000000e+00       6.394818156745e-11      -1.141151897915e-11      -3.224174935897e-15 
   66       1.871281216343e-10       1.459186284251e-14       1.010060937321e-13       0.000000000000e+00       6.172537114898e-11      -1.098138322242e-11      -3.622162259767e-15 
   67       1.889603917768e-10       1.531802470160e-14       8.451890887409e-14       0.000000000000e+00       5.960330375068e-11      -1.057108164180e-11      -4.135773205431e-15 
   68       1.908075539319e-10       1.606438131770e-14       6.704937379150e-14       0.000000000000e+00       5.756875779372e-11      -1.017807742072e-11      -4.698336281143e-15 
   69       1.926705250658e-10       1.683092475247e-14       4.857204113760e-14       0.000000000000e+00       5.562009631245e-11      -9.802056538427e-12      -5.276651086104e-15 
   70       1.945505813568e-10       1.761779883270e-14       2.907183907785e-14       0.000000000000e+00       5.375768456837e-11      -9.443089286603e-12      -5.844263715238e-15 
   71       1.964485364735e-10       1.842514798293e-14       8.533917734657e-15       0.000000000000e+00       5.198036972732e-11      -9.100954888775e-12      -6.371721434719e-15 
   72       1.983647116420e-10       1.925311755646e-14      -1.305635446849e-14       0.000000000000e+00       5.028540255564e-11      -8.775126525426e-12      -6.826468129884e-15 
   73       2.002989057128e-10       2.010185416639e-14      -3.571339446303e-14       0.000000000000e+00       4.866835911626e-11      -8.464756359137e-12      -7.172739753143e-15 
   74       2.022503652279e-10       2.097150601668e-14      -5.945140819127e-14       0.000000000000e+00       4.712306246490e-11      -8.168660559717e-12      -7.371459771889e-15 
   75       2.042177544880e-10       2.186222323316e-14      -8.428439426233e-14       0.000000000000e+00       4.564150434618e-11      -7.885304329336e-12      -7.380134616407e-15 
   76       2.061997332979e-10       2.277411347332e-14      -1.102198982185e-13       0.000000000000e+00       4.421582003355e-11      -7.613166332899e-12      -7.166632987212e-15 
   77       2.081968780004e-10       2.370709867852e-14      -1.372389523618e-13       0.000000000000e+00       4.284480169763e-11      -7.351941813685e-12      -6.753655799013e-15 
   78       2.102100579982e-10       2.466103267995e-14      -1.653124675046e-13       0.000000000000e+00       4.152843603795e-11      -7.101532684644e-12      -6.182223271348e-15 
   79       2.122398419626e-10       2.563574302593e-14      -1.944070353589e-13       0.000000000000e+00       4.026592089183e-11      -6.861680507998e-12      -5.498687711310e-15 
   80       2.142864803627e-10       2.663103039596e-14      -2.244848040431e-13       0.000000000000e+00       3.905562903193e-11      -6.631959300388e-12      -4.754913661234e-15 
   81       2.163498879926e-10       2.764666801467e-14      -2.555033535895e-13       0.000000000000e+00       3.789507196372e-11      -6.411768338015e-12      -4.008458046395e-15 
   82       2.184296264995e-10       2.868240106586e-14      -2.874155714513e-13       0.000000000000e+00       3.678086372301e-11      -6.200324961790e-12      -3.322750322702e-15 
   83       2.205248869124e-10       2.973794610643e-14      -3.201695280097e-13       0.000000000000e+00       3.570868467349e-11      -5.996657382475e-12      -2.767272624385e-15 
   84       2.226349139297e-10       3.081301742627e-14      -3.537204361881e-13       0.000000000000e+00       3.467432686875e-11      -5.799847049534e-12      -2.401350003038e-15 
   85       2.247603978734e-10       3.190741243216e-14      -3.880690810156e-13       0.000000000000e+00       3.367710855563e-11      -5.609817683336e-12      -2.222038961973e-15 
   86       2.269022825306e-10       3.302093941012e-14      -4.232295622404e-13       0.000000000000e+00       3.271696197964e-11      -5.426664464546e-12      -2.207890069709e-15 
   87       2.290613340106e-10       3.415339170688e-14      -4.592178541034e-13       0.000000000000e+00       3.179338438965e-11      -5.250413144174e-12      -2.334475856862e-15 
   88       2.312381306978e-10       3.530454759679e-14      -4.960518839396e-13       0.000000000000e+00       3.090542001298e-11      -5.081017043079e-12      -2.574295503194e-15 
   89       2.334330532040e-10       3.647417014866e-14      -5.337516107796e-13       0.000000000000e+00       3.005164203051e-11      -4.918354051454e-12      -2.896679524651e-15 
   90       2.356462743211e-10       3.766200709262e-14      -5.723391039507e-13       0.000000000000e+00       2.923013455169e-11      -4.762223628320e-12      -3.267694460407e-15 
   91       2.378777489735e-10       3.886779068701e-14      -6.118386216783e-13       0.000000000000e+00       2.843847458965e-11      -4.612343801021e-12      -3.650047559914e-15 
   92       2.401272041712e-10       4.009123758523e-14      -6.522766896878e-13       0.000000000000e+00       2.767371403627e-11      -4.468348164717e-12      -4.002991469937e-15 
   93       2.423943677072e-10       4.133204502113e-14      -6.936751931571e-13       0.000000000000e+00       2.693307811400e-11      -4.329870892192e-12      -4.290873220180e-15 
   94       2.446797154220e-10       4.258987899822e-14      -7.360292933695e-13       0.000000000000e+00       2.621622004603e-11      -4.196822905869e-12      -4.510458997207e-15 
   95       2.469838182740e-10       4.386438406969e-14      -7.793263195959e-13       0.000000000000e+00       2.552327374026e-11      -4.069151887718e-12      -4.667561916767e-15 
   96       2.493071069292e-10       4.515518668040e-14      -8.235524427341e-13       0.000000000000e+00       2.485415944700e-11      -3.946756201523e-12      -4.768786935975e-15 
   97       2.516498649902e-10       4.646189498319e-14      -8.686926580053e-13       0.000000000000e+00       2.420857556906e-11      -3.829483100473e-12      -4.821554199223e-15 
   98       2.540122222266e-10       4.778409865526e-14      -9.147307676513e-13       0.000000000000e+00       2.358599047172e-11      -3.717126934764e-12      -4.834122384096e-15 
   99       2.563941478046e-10       4.912136871441e-14      -9.616493636312e-13       0.000000000000e+00       2.298563429282e-11      -3.609427359188e-12      -4.815612047279e-15 
  100       2.587954435168e-10       5.047325733545e-14      -1.009429810318e-12       0.000000000000e+00       2.240649075272e-11      -3.506067540738e-12      -4.776028970476e-15 
  101       2.612157370120e-10       5.183929766652e-14      -1.058052227195e-12       0.000000000000e+00       2.184728896441e-11      -3.406672366195e-12      -4.726287506312e-15 
  102       2.636544750251e-10       5.321900364535e-14      -1.107495471556e-12       0.000000000000e+00       2.130649524350e-11      -3.310806649729e-12      -4.678233924258e-15 
  103       2.661109166066e-10       5.461186981568e-14      -1.157737121195e-12       0.000000000000e+00       2.078230491824e-11      -3.217973340497e-12      -4.644669756532e-15 
  104       2.685843893813e-10       5.601736001864e-14      -1.208754460310e-12       0.000000000000e+00       2.027305194536e-11      -3.127722297901e-12      -4.636618785520e-15 
  105       2.710751123290e-10       5.743487212295e-14      -1.260527626135e-12       0.000000000000e+00       1.977851841522e-11      -3.039997212601e-12      -4.654657259047e-15 
  106       2.735834720451e-10       5.886376816567e-14      -1.313036857091e-12       0.000000000000e+00       1.929878749679e-11      -2.954832426090e-12      -4.696450584915e-15 
  107       2.761097658044e-10       6.030338474947e-14      -1.366261521338e-12       0.000000000000e+00       1.883383787301e-11      -2.872245977500e-12      -4.759398246348e-15 
