# dimensionless total lensed [l(l+1)/2pi] C_l's
# for l=2 to 2500, i.e. number of multipoles equal to 2499
#
# -> if you prefer output in CAMB/HealPix/LensPix units/order, set 'format' to 'camb' in input file
# -> if you don't want to see such a header, set 'headers' to 'no' in input file
# -> for CMB lensing (phi), these are C_l^phi-phi for the lensing potential.
#    Remember the conversion factors:
#    C_l^dd (deflection) = l(l+1) C_l^phi-phi
#    C_l^gg (shear/convergence) = 1/4 (l(l+1))^2 C_l^phi-phi
#
# 1:l     2:TT                     3:EE                     4:TE                     5:BB                     6:phiphi                 7:TPhi                   8:Ephi               
    2       5.960178277720e-10       3.371951675064e-15       8.140137697101e-13       3.632845529142e-19       2.282682498387e-08      -2.980315398494e-09      -2.235558110839e-12 
    3       4.317895990613e-10       6.756795983569e-15       8.096724914141e-13       7.269481276019e-19       1.452416695003e-08      -1.937164265002e-09      -1.867912384960e-12 
    4       3.439065513496e-10       1.029835181763e-14       7.854682815110e-13       1.212413223351e-18       1.013509828199e-08      -1.389812444710e-09      -1.603360715666e-12 
    5       2.896284090829e-10       1.300684663945e-14       7.429070694071e-13       1.820159633441e-18       7.526667608255e-09      -1.059937017103e-09      -1.373330171470e-12 
    6       2.528591991191e-10       1.427619145446e-14       6.847222581598e-13       2.550765553236e-18       5.846395685788e-09      -8.419860509318e-10      -1.155255353544e-12 
    7       2.264660672720e-10       1.401271902665e-14       6.181611059714e-13       3.404893973645e-18       4.699727446747e-09      -6.889485644359e-10      -9.500635617084e-13 
    8       2.067693538225e-10       1.249740540760e-14       5.487931902196e-13       4.383277092078e-18       3.879479214274e-09      -5.764607301288e-10      -7.606161353218e-13 
    9       1.916267752353e-10       1.021680624468e-14       4.806470482287e-13       5.486699120028e-18       3.268176047024e-09      -4.907427927698e-10      -5.892665343464e-13 
   10       1.797529513824e-10       7.696339816938e-15       4.163573603762e-13       6.715977909921e-18       2.795829960873e-09      -4.235353922644e-10      -4.376626447065e-13 
   11       1.703820300545e-10       5.373166754165e-15       3.575045092957e-13       8.071945858509e-18       2.081453856617e-09      -3.499702377325e-10      -3.075182125452e-13 
   12       1.628431039850e-10       3.526545138296e-15       3.051663687965e-13       9.555430568789e-18       1.800415168288e-09      -3.070684427331e-10      -1.983423472338e-13 
   13       1.567686962044e-10       2.263858285281e-15       2.599892007953e-13       1.116723576637e-17       1.572283070556e-09      -2.714766245274e-10      -1.090526179173e-13 
   14       1.518810960304e-10       1.548726582429e-15       2.222502649091e-13       1.290812296849e-17       1.384461206897e-09      -2.417707621095e-10      -3.973563187985e-14 
   15       1.479072017498e-10       1.252602283117e-15       1.920650661921e-13       1.477879439406e-17       1.227924551965e-09      -2.165530090574e-10       1.159972566777e-14 
   16       1.447276064948e-10       1.211507803932e-15       1.692759271017e-13       1.677987758084e-17       1.096050450632e-09      -1.950287589489e-10       4.629795358064e-14 
   17       1.421619987811e-10       1.273634575058e-15       1.534277857674e-13       1.891191214087e-17       9.839025439707e-10      -1.764229566136e-10       6.666458924274e-14 
   18       1.400961142647e-10       1.325353865918e-15       1.438138197966e-13       2.117533818568e-17       8.872560887186e-10      -1.602672796425e-10       7.500320480465e-14 
   19       1.385100139385e-10       1.324220122958e-15       1.398742011338e-13       2.357049271628e-17       8.046099695109e-10      -1.463196688687e-10       7.339064268846e-14 
   20       1.372805049708e-10       1.251716636989e-15       1.404892280690e-13       2.609759515961e-17       7.322914713722e-10      -1.339608717870e-10       6.487228204477e-14 
   21       1.363681299539e-10       1.133049060647e-15       1.447736819042e-13       2.875676023310e-17       6.690163383028e-10      -1.230076943534e-10       5.151624435261e-14 
   22       1.357009226543e-10       1.013444500655e-15       1.516074424450e-13       3.154798234169e-17       6.132123614522e-10      -1.132458196633e-10       3.547573605672e-14 
   23       1.352765097597e-10       9.243681855801e-16       1.601610868048e-13       3.447116118385e-17       5.640161162734e-10      -1.045691126662e-10       1.844084539303e-14 
   24       1.350701697305e-10       8.912861514275e-16       1.695408787287e-13       3.752608591924e-17       5.201681233880e-10      -9.679453479232e-11       2.068887170799e-15 
   25       1.350492169870e-10       9.165348714215e-16       1.790986425167e-13       4.071247779106e-17       4.810896982822e-10      -8.980570318975e-11      -1.260405662004e-14 
   26       1.351555273112e-10       9.904227453649e-16       1.882198943832e-13       4.402996847780e-17       4.460199803719e-10      -8.344610331479e-11      -2.477673482865e-14 
   27       1.353924138075e-10       1.093105038515e-15       1.965703767925e-13       4.747814617713e-17       4.144944093943e-10      -7.767040161804e-11      -3.403510906941e-14 
   28       1.357638387389e-10       1.200552841321e-15       2.039168760119e-13       5.105654465542e-17       3.859231899883e-10      -7.242691426378e-11      -4.019201775079e-14 
   29       1.362715502482e-10       1.303036112966e-15       2.101949427665e-13       5.476473208828e-17       3.601339723304e-10      -6.769031370139e-11      -4.330606255457e-14 
   30       1.368938406902e-10       1.394156279769e-15       2.154166835335e-13       5.860224865428e-17       3.368228065058e-10      -6.339441418138e-11      -4.365265548935e-14 
   31       1.375913230081e-10       1.469243633258e-15       2.196434560326e-13       6.256861951877e-17       3.154805753703e-10      -5.943612227459e-11      -4.167009196615e-14 
   32       1.383625761503e-10       1.535835798128e-15       2.230204330960e-13       6.666349078250e-17       2.959808732872e-10      -5.579594915035e-11      -3.778942793227e-14 
   33       1.392053680639e-10       1.607449011594e-15       2.257626739617e-13       7.088655179123e-17       2.781716784919e-10      -5.245535355537e-11      -3.256743487616e-14 
   34       1.401072371237e-10       1.698345906945e-15       2.281200766926e-13       7.523753715456e-17       2.617862404168e-10      -4.937483231469e-11      -2.666133978363e-14 
   35       1.410695208526e-10       1.813849458514e-15       2.302700814878e-13       7.971633725952e-17       2.467302450957e-10      -4.653799284667e-11      -2.053813720849e-14 
   36       1.420893269350e-10       1.956732194385e-15       2.323915356400e-13       8.432293921666e-17       2.328722129196e-10      -4.391870384244e-11      -1.467729462867e-14 
   37       1.431572367837e-10       2.128895611905e-15       2.346596942208e-13       8.905742362118e-17       2.200192232112e-10      -4.147974939668e-11      -9.565684451216e-15 
   38       1.442753850237e-10       2.328432171833e-15       2.371264596887e-13       9.392002494203e-17       2.081320957309e-10      -3.921538858171e-11      -5.397023872238e-15 
   39       1.454437577789e-10       2.551486564961e-15       2.398000744279e-13       9.891110670473e-17       1.971680013621e-10      -3.712040298020e-11      -2.274988473166e-15 
   40       1.466543500477e-10       2.792930179092e-15       2.426754910887e-13       1.040311577447e-16       1.870152048695e-10      -3.517732282021e-11      -2.917736439799e-16 
   41       1.478956396380e-10       3.047755479236e-15       2.457202142516e-13       1.092807845323e-16       1.775308297268e-10      -3.336259683225e-11       5.060408318549e-16 
   42       1.491696440289e-10       3.316014774996e-15       2.488294954628e-13       1.146606617325e-16       1.686833020236e-10      -3.167010924877e-11       2.296140767877e-16 
   43       1.504790973654e-10       3.599342360077e-15       2.518543028439e-13       1.201715819424e-16       1.604462197071e-10      -3.009350366240e-11      -9.252253854530e-16 
   44       1.518222579167e-10       3.899626017782e-15       2.546107061577e-13       1.258144801019e-16       1.527557006839e-10      -2.861902643409e-11      -2.703756190063e-15 
   45       1.531951258197e-10       4.218482639997e-15       2.569025794403e-13       1.315903628138e-16       1.455325127166e-10      -2.723016967359e-11      -4.828904392016e-15 
   46       1.545998824246e-10       4.555463635804e-15       2.586030344806e-13       1.375000509627e-16       1.387633454570e-10      -2.592462165291e-11      -7.132763945529e-15 
   47       1.560382553980e-10       4.909337917075e-15       2.595935560576e-13       1.435443746913e-16       1.324387877318e-10      -2.470139769275e-11      -9.457990788393e-15 
   48       1.575088342128e-10       5.278568368211e-15       2.597404281328e-13       1.497242498314e-16       1.265288569311e-10      -2.355578561269e-11      -1.161950430056e-14 
   49       1.590067997605e-10       5.661295445080e-15       2.588939489614e-13       1.560406818901e-16       1.209814769034e-10      -2.247906674799e-11      -1.340304326918e-14 
   50       1.605261506622e-10       6.055915515985e-15       2.569197274838e-13       1.624946485882e-16       1.157378515481e-10      -2.146118480794e-11      -1.461222192973e-14 
   51       1.620677219144e-10       6.463039004146e-15       2.538044082871e-13       1.690867006413e-16       1.107870364261e-10      -2.050025372620e-11      -1.522810618344e-14 
   52       1.636328754340e-10       6.884035410617e-15       2.495772877603e-13       1.758172595054e-16       1.061235489444e-10      -1.959514836950e-11      -1.529045643733e-14 
   53       1.652210443275e-10       7.320496339016e-15       2.442814486498e-13       1.826867276655e-16       1.017310575468e-10      -1.874264532624e-11      -1.485383173797e-14 
   54       1.668295799962e-10       7.774247082326e-15       2.379744848775e-13       1.896954869061e-16       9.758165470063e-11      -1.793728264531e-11      -1.398842809309e-14 
   55       1.684552091829e-10       8.247078523295e-15       2.307202152910e-13       1.968438031717e-16       9.364420063120e-11      -1.717298546538e-11      -1.277745864337e-14 
   56       1.700991792503e-10       8.739838298747e-15       2.225597538739e-13       2.041315174307e-16       8.991344731357e-11      -1.644873713871e-11      -1.130661152746e-14 
   57       1.717631232926e-10       9.253134156157e-15       2.135345223310e-13       2.115582749868e-16       8.638687608473e-11      -1.576407125775e-11      -9.673441510412e-15 
   58       1.734474739740e-10       9.787594533990e-15       2.036949970981e-13       2.191236069099e-16       8.305589530917e-11      -1.511735929280e-11      -7.991286956745e-15 
   59       1.751513733584e-10       1.034386925162e-14       1.931010830797e-13       2.268269246674e-16       7.990546677137e-11      -1.450573913170e-11      -6.389973418956e-15 
   60       1.768725827400e-10       1.092263019924e-14       1.818224873865e-13       2.346675147558e-16       7.691373206838e-11      -1.392504361963e-11      -5.016517225973e-15 
   61       1.786086183573e-10       1.152443109681e-14       1.699184985675e-13       2.426445770122e-16       7.405800213510e-11      -1.337094442076e-11      -4.002113730913e-15 
   62       1.803606604214e-10       1.214924842541e-14       1.573711749912e-13       2.507573617421e-16       7.133514205383e-11      -1.284284529677e-11      -3.352851509355e-15 
   63       1.821303654959e-10       1.279683820835e-14       1.441377548343e-13       2.590050539853e-16       6.874511968439e-11      -1.234073988610e-11      -3.035604682833e-15 
   64       1.839186677801e-10       1.346686414263e-14       1.301696530906e-13       2.673867286479e-16       6.628487798093e-11      -1.186404124807e-11      -3.009224731863e-15 
   65       1.857257278350e-10       1.415889381725e-14       1.154121818607e-13       2.759013465202e-16       6.394816328194e-11      -1.141154896396e-11      -3.224174322146e-15 
   66       1.875508813098e-10       1.487239493150e-14       9.980427064153e-14       2.845477502940e-16       6.172535360007e-11      -1.098141623796e-11      -3.622161130777e-15 
   67       1.893925876683e-10       1.560673151325e-14       8.327818661617e-14       2.933246605802e-16       5.960328691216e-11      -1.057111699817e-11      -4.135771672447e-15 
   68       1.912492163873e-10       1.636132184781e-14       6.577004151921e-14       3.022308884368e-16       5.756874163267e-11      -1.017811387649e-11      -4.698334528032e-15 
   69       1.931217051508e-10       1.713615787745e-14       4.725440967191e-14       3.112660318636e-16       5.562008079169e-11      -9.802092859105e-12      -5.276649296141e-15 
   70       1.950113506403e-10       1.793138473579e-14       2.771625421771e-14       3.204299139294e-16       5.375766964721e-11      -9.443124414273e-12      -5.844262048740e-15 
   71       1.969189894005e-10       1.874714869701e-14       7.140757418383e-15       3.297223802758e-16       5.198035536174e-11      -9.100987971581e-12      -6.371720025002e-15 
   72       1.988449679840e-10       1.958359752989e-14      -1.448668318481e-14       3.391433006715e-16       5.028538869843e-11      -8.775156948237e-12      -6.826467079060e-15 
   73       2.007891130969e-10       2.044088085196e-14      -3.718045860994e-14       3.486925705670e-16       4.866834571727e-11      -8.464783775349e-12      -7.172739127751e-15 
   74       2.027507017433e-10       2.131915048360e-14      -6.095475227328e-14       3.583701126501e-16       4.712304947122e-11      -8.168684924208e-12      -7.371459598375e-15 
   75       2.047284313710e-10       2.221856080213e-14      -8.582354382809e-14       3.681758783999e-16       4.564149170236e-11      -7.885325932569e-12      -7.380134876439e-15 
   76       2.067209886318e-10       2.313922352008e-14      -1.117943284365e-13       3.781099454494e-16       4.421580768339e-11      -7.613185760964e-12      -7.166633622544e-15 
   77       2.087289413979e-10       2.408106171671e-14      -1.388479438405e-13       3.881728267308e-16       4.284478959086e-11      -7.351959668038e-12      -6.753656747352e-15 
   78       2.107531391266e-10       2.504392970811e-14      -1.669550545435e-13       3.983652207909e-16       4.152842413295e-11      -7.101549500213e-12      -6.182224476611e-15 
   79       2.127941275572e-10       2.602765569058e-14      -1.960819870228e-13       4.086879244478e-16       4.026590915694e-11      -6.861696742222e-12      -5.498689124708e-15 
   80       2.148521311313e-10       2.703204116022e-14      -2.261906046985e-13       4.191418363101e-16       3.905561744674e-11      -6.631975321861e-12      -4.754915242403e-15 
   81       2.169270354129e-10       2.805686033242e-14      -2.572381829019e-13       4.297279602963e-16       3.789506052050e-11      -6.411784414737e-12      -4.008459764562e-15 
   82       2.190183695084e-10       2.910185956143e-14      -2.891772838446e-13       4.404474091545e-16       3.678085242813e-11      -6.200341249026e-12      -3.322752157890e-15 
   83       2.211252884873e-10       3.016675675988e-14      -3.219556315866e-13       4.513014079816e-16       3.570867354889e-11      -5.996673910216e-12      -2.767274568665e-15 
   84       2.232470004347e-10       3.125126602020e-14      -3.555280903863e-13       4.622910571800e-16       3.467431594979e-11      -5.799863736094e-12      -2.401352058345e-15 
   85       2.253841674629e-10       3.235517743998e-14      -3.898951552155e-13       4.734165684671e-16       3.367709787736e-11      -5.609834433170e-12      -2.222041126923e-15 
   86       2.275377058058e-10       3.347828952726e-14      -4.250706425858e-13       4.846779080759e-16       3.271695157275e-11      -5.426681195146e-12      -2.207892335655e-15 
   87       2.297083518790e-10       3.462038502065e-14      -4.610702317349e-13       4.960750255414e-16       3.179337427997e-11      -5.250429787748e-12      -2.334478207244e-15 
   88       2.318966521727e-10       3.578123073245e-14      -4.979115430139e-13       5.076078531766e-16       3.090541022097e-11      -5.081033548264e-12      -2.574297912859e-15 
   89       2.341029531446e-10       3.696057739174e-14      -5.356142162742e-13       5.192763055492e-16       3.005163257066e-11      -4.918370385093e-12      -2.896681959163e-15 
   90       2.363273911131e-10       3.815815948750e-14      -5.741999892540e-13       5.310802789577e-16       2.923012543200e-11      -4.762239777288e-12      -3.267696875337e-15 
   91       2.385698821500e-10       3.937369511167e-14      -6.136927759653e-13       5.430196509077e-16       2.843846581104e-11      -4.612359774105e-12      -3.650049900106e-15 
   92       2.408301119739e-10       4.060688580231e-14      -6.541187450810e-13       5.550942795886e-16       2.767370559197e-11      -4.468363994543e-12      -4.002993668762e-15 
   93       2.431077753553e-10       4.185741504080e-14      -6.954994582373e-13       5.673039238704e-16       2.693306999050e-11      -4.329886631256e-12      -4.290875202650e-15 
   94       2.454033574729e-10       4.312494382594e-14      -7.378299341759e-13       5.796479906691e-16       2.621621222887e-11      -4.196838603731e-12      -4.510460695382e-15 
   95       2.477174519333e-10       4.440911414102e-14      -7.810974150255e-13       5.921257484402e-16       2.552326621564e-11      -4.069167584282e-12      -4.667563274694e-15 
   96       2.500505151374e-10       4.570955006732e-14      -8.252879957725e-13       6.047364016792e-16       2.485415220201e-11      -3.946771925989e-12      -4.768787910945e-15 
   97       2.524028595984e-10       4.702585760877e-14      -8.703866073826e-13       6.174790893074e-16       2.420856859178e-11      -3.829498870258e-12      -4.821554763059e-15 
   98       2.547746472597e-10       4.835762451650e-14      -9.163769999221e-13       6.303528830565e-16       2.358598375145e-11      -3.717142754396e-12      -4.834122524477e-15 
   99       2.571658828132e-10       4.970442011357e-14      -9.632417256795e-13       6.433567858547e-16       2.298562782022e-11      -3.609443219168e-12      -4.815611769099e-15 
  100       2.595764070172e-10       5.106579511948e-14      -1.010962122287e-12       6.564897302115e-16       2.240648452005e-11      -3.506083416373e-12      -4.776028297235e-15 
  101       2.620058900144e-10       5.244128147491e-14      -1.059518295841e-12       6.697505766036e-16       2.184728296568e-11      -3.406688216404e-12      -4.726286481552e-15 
  102       2.644538246499e-10       5.383039216626e-14      -1.108889104026e-12       6.831381118596e-16       2.130648947469e-11      -3.310822415816e-12      -4.678232613017e-15 
  103       2.669195197895e-10       5.523262105031e-14      -1.159052139234e-12       6.966510475460e-16       2.078229937749e-11      -3.217988944894e-12      -4.644668246846e-15 
  104       2.694023448549e-10       5.664743229493e-14      -1.209984666093e-12       7.102883777267e-16       2.027304663262e-11      -3.127737647708e-12      -4.636617184118e-15 
  105       2.719025154436e-10       5.807422745443e-14      -1.261666614651e-12       7.240505107608e-16       1.977851332999e-11      -3.040012218301e-12      -4.654655668664e-15 
  106       2.744204018717e-10       5.951237359891e-14      -1.314077961943e-12       7.379382880956e-16       1.929878263748e-11      -2.954847007086e-12      -4.696449097555e-15 
  107       2.769562835596e-10       6.096121301500e-14      -1.367197807377e-12       7.519526408518e-16       1.883383323693e-11      -2.872260063048e-12      -4.759396942138e-15 
