# dimensionless total [l(l+1)/2pi] C_l's
# for l=2 to 3000, i.e. number of multipoles equal to 2999
#
# -> if you prefer output in CAMB/HealPix/LensPix units/order, set 'format' to 'camb' in input file
# -> if you don't want to see such a header, set 'headers' to 'no' in input file
# -> for CMB lensing (phi), these are C_l^phi-phi for the lensing potential.
#    Remember the conversion factors:
#    C_l^dd (deflection) = l(l+1) C_l^phi-phi
#    C_l^gg (shear/convergence) = 1/4 (l(l+1))^2 C_l^phi-phi
#
# 1:l     2:TT                     3:EE                     4:TE                     5:BB                     6:phiphi                 7:TPhi                   8:Ephi               
    2       1.703270209337e-10       6.617701192944e-15       3.829704794097e-13       0.000000000000e+00       6.096947078579e-09       4.897555171392e-10      -2.242867382304e-12 
    3       1.685868081117e-10       1.104786290976e-14       4.342218708696e-13       0.000000000000e+00       3.632037306518e-09       3.838531557468e-10      -1.921893723463e-12 
    4       1.628515984551e-10       1.239345247048e-14       4.291128332432e-13       0.000000000000e+00       2.480303626597e-09       3.111562960120e-10      -1.459660943876e-12 
    5       1.566732084504e-10       1.081913503294e-14       4.054932481652e-13       0.000000000000e+00       1.830542732180e-09       2.586307558518e-10      -9.976247855281e-13 
    6       1.511477674302e-10       7.806277732180e-15       3.798557469410e-13       0.000000000000e+00       1.418866095294e-09       2.190967206351e-10      -5.875609074311e-13 
    7       1.464902765341e-10       4.906826458051e-15       3.578747015646e-13       0.000000000000e+00       1.138270259393e-09       1.884363495254e-10      -2.544974789734e-13 
    8       1.427375606644e-10       2.987748400129e-15       3.389463746626e-13       0.000000000000e+00       9.366745711660e-10       1.640855830115e-10      -7.625173077619e-15 
    9       1.398594055017e-10       2.128936357305e-15       3.206640205408e-13       0.000000000000e+00       7.859658312218e-10       1.443579478813e-10       1.548478444637e-13 
   10       1.377429394689e-10       1.932878589634e-15       3.014382751949e-13       0.000000000000e+00       6.698516405597e-10       1.281478885207e-10       2.425837501939e-13 
   11       1.362998936980e-10       1.924730378703e-15       2.810386032187e-13       0.000000000000e+00       5.665612380717e-10       1.150848864019e-10       2.694395944046e-13 
   12       1.354813069149e-10       1.812469135097e-15       2.600760884376e-13       0.000000000000e+00       4.943611692438e-10       1.038473193994e-10       2.544781518579e-13 
   13       1.351031657672e-10       1.540946200320e-15       2.398392298480e-13       0.000000000000e+00       4.352704312568e-10       9.408653265895e-11       2.123875598200e-13 
   14       1.350926875243e-10       1.203282132051e-15       2.218916120600e-13       0.000000000000e+00       3.862236742811e-10       8.576361699790e-11       1.585901613129e-13 
   15       1.354377790128e-10       9.179983175146e-16       2.074619171032e-13       0.000000000000e+00       3.450288261708e-10       7.859876760728e-11       1.047097720493e-13 
   16       1.360410261882e-10       7.506164052546e-16       1.974285717196e-13       0.000000000000e+00       3.100664129067e-10       7.238010919047e-11       5.880456047627e-14 
   17       1.368499475251e-10       7.010392193494e-16       1.922781695179e-13       0.000000000000e+00       2.801188900937e-10       6.691737483227e-11       2.534649624499e-14 
   18       1.378442805585e-10       7.305985406414e-16       1.918531624158e-13       0.000000000000e+00       2.541580175114e-10       6.200497353335e-11       5.530149494384e-15 
   19       1.390150722972e-10       8.135144270945e-16       1.956087068271e-13       0.000000000000e+00       2.317577929946e-10       5.761739660466e-11      -1.758624218233e-15 
   20       1.402841343857e-10       9.262010682277e-16       2.024064704534e-13       0.000000000000e+00       2.120455602912e-10       5.367949291937e-11       4.166985884412e-16 
   21       1.416715688318e-10       1.069129161925e-15       2.112282573969e-13       0.000000000000e+00       1.947058674402e-10       5.014746178759e-11       8.637755768225e-15 
   22       1.431842140279e-10       1.248883703589e-15       2.208508782342e-13       0.000000000000e+00       1.793181641519e-10       4.693227302052e-11       1.870519197934e-14 
   23       1.447999998164e-10       1.461623059393e-15       2.304187496605e-13       0.000000000000e+00       1.656678770910e-10       4.400292990141e-11       2.784076027701e-14 
   24       1.464663224996e-10       1.698626719531e-15       2.391144082373e-13       0.000000000000e+00       1.534366660862e-10       4.131890516379e-11       3.368000726083e-14 
   25       1.482098454917e-10       1.952753297788e-15       2.464630693202e-13       0.000000000000e+00       1.424787244289e-10       3.889297951587e-11       3.543738742342e-14 
   26       1.500572662308e-10       2.218761475407e-15       2.521509943397e-13       0.000000000000e+00       1.325937909936e-10       3.672304316528e-11       3.308246100126e-14 
   27       1.519888360760e-10       2.503218376496e-15       2.562925908815e-13       0.000000000000e+00       1.236624369488e-10       3.475374235608e-11       2.747528800629e-14 
   28       1.539604716170e-10       2.816374205530e-15       2.591676716599e-13       0.000000000000e+00       1.155300379228e-10       3.290425420483e-11       1.995900801936e-14 
   29       1.559799517459e-10       3.162104384376e-15       2.609504596027e-13       0.000000000000e+00       1.081547239320e-10       3.117386611967e-11       1.172479079404e-14 
   30       1.580578507157e-10       3.542388290914e-15       2.618238421134e-13       0.000000000000e+00       1.014569055022e-10       2.957550672189e-11       4.166359265606e-15 
   31       1.601913612079e-10       3.958879248900e-15       2.619629505062e-13       0.000000000000e+00       9.529949379688e-11       2.810893726980e-11      -1.295009080923e-15 
   32       1.623818481441e-10       4.411896090196e-15       2.613061898884e-13       0.000000000000e+00       8.965065399458e-11       2.676563060917e-11      -4.374142455361e-15 
   33       1.646205050033e-10       4.900989916779e-15       2.596947652544e-13       0.000000000000e+00       8.447050826905e-11       2.552285183722e-11      -5.200319389675e-15 
   34       1.668896151341e-10       5.425601563196e-15       2.569463867990e-13       0.000000000000e+00       7.968660459112e-11       2.435039790262e-11      -4.076049921404e-15 
   35       1.691891629035e-10       5.986595182262e-15       2.529188948720e-13       0.000000000000e+00       7.527442075172e-11       2.324414237085e-11      -1.642408277830e-15 
   36       1.715173790583e-10       6.585241839608e-15       2.474649138696e-13       0.000000000000e+00       7.119847204126e-11       2.220266658549e-11       1.202970323693e-15 
   37       1.738682718009e-10       7.222626354964e-15       2.404316639788e-13       0.000000000000e+00       6.740563155733e-11       2.122077900184e-11       3.531490836677e-15 
   38       1.762508768655e-10       7.898998829120e-15       2.317242571882e-13       0.000000000000e+00       6.388615132855e-11       2.029990131296e-11       5.063715081111e-15 
   39       1.786750852493e-10       8.614190556916e-15       2.212618728898e-13       0.000000000000e+00       6.062896119643e-11       1.944026005804e-11       5.705312929395e-15 
   40       1.811457358694e-10       9.367766730964e-15       2.089604230093e-13       0.000000000000e+00       5.760311147646e-11       1.863757750583e-11       5.365951216076e-15 
   41       1.836631353261e-10       1.015946829109e-14       1.947477034231e-13       0.000000000000e+00       5.476857502051e-11       1.788486008057e-11       4.027640641392e-15 
   42       1.862262402580e-10       1.099074934600e-14       1.786154921019e-13       0.000000000000e+00       5.211705326049e-11       1.717945763724e-11       1.974590157508e-15 
   43       1.888295170129e-10       1.186371301016e-14       1.605839122425e-13       0.000000000000e+00       4.964153373082e-11       1.651760639040e-11      -3.604600582506e-16 
   44       1.914614159524e-10       1.278071161093e-14       1.406882004120e-13       0.000000000000e+00       4.732404242512e-11       1.589216816000e-11      -2.451965232499e-15 
   45       1.941091153246e-10       1.374385893809e-14       1.189642186800e-13       0.000000000000e+00       4.514207665864e-11       1.529502219215e-11      -3.806866838636e-15 
   46       1.967756563579e-10       1.475335720324e-14       9.539802298857e-14       0.000000000000e+00       4.309225406076e-11       1.472571069057e-11      -4.397935839770e-15 
   47       1.994670558197e-10       1.580869582382e-14       6.996251921873e-14       0.000000000000e+00       4.117224881919e-11       1.418493231015e-11      -4.350739587402e-15 
   48       2.021872863394e-10       1.690909761112e-14       4.263129688466e-14       0.000000000000e+00       3.937365924882e-11       1.367200642318e-11      -3.826205568062e-15 
   49       2.049380648099e-10       1.805350503863e-14       1.337851582233e-14       0.000000000000e+00       3.768155561443e-11       1.318476396906e-11      -3.022716557042e-15 
   50       2.077198635076e-10       1.924080389223e-14      -1.781953729553e-14       0.000000000000e+00       3.607898829085e-11       1.272040730845e-11      -2.146708177093e-15 
   51       2.105357579213e-10       2.047059764686e-14      -5.097901844728e-14       0.000000000000e+00       3.456300390603e-11       1.227861816807e-11      -1.310192036701e-15 
   52       2.133882576117e-10       2.174261954953e-14      -8.611267858897e-14       0.000000000000e+00       3.313219498280e-11       1.185910463931e-11      -6.090380077557e-16 
   53       2.162780243740e-10       2.305651110848e-14      -1.232314385549e-13       0.000000000000e+00       3.178190600744e-11       1.146064386385e-11      -1.526390389154e-16 
   54       2.192037181786e-10       2.441181953242e-14      -1.623444237888e-13       0.000000000000e+00       3.050401468006e-11       1.108101848355e-11      -6.452406957032e-17 
   55       2.221631757877e-10       2.580811127563e-14      -2.034565105961e-13       0.000000000000e+00       2.928941686438e-11       1.071772529473e-11      -4.426233364386e-16 
   56       2.251576424078e-10       2.724535157152e-14      -2.465601715162e-13       0.000000000000e+00       2.813670546722e-11       1.037045295285e-11      -1.227100979665e-15 
   57       2.281883214242e-10       2.872361469787e-14      -2.916416649999e-13       0.000000000000e+00       2.704526442187e-11       1.003910846980e-11      -2.300762785638e-15 
   58       2.312550339144e-10       3.024297805158e-14      -3.386832855338e-13       0.000000000000e+00       2.601264294366e-11       9.723066201161e-12      -3.525588951399e-15 
   59       2.343561165126e-10       3.180352411148e-14      -3.876633014179e-13       0.000000000000e+00       2.503444211928e-11       9.421134382019e-12      -4.741775013900e-15 
   60       2.374883192719e-10       3.340534240104e-14      -4.385558925428e-13       0.000000000000e+00       2.410420149613e-11       9.131521662648e-12      -5.766772779260e-15 
   61       2.406483234715e-10       3.504835686598e-14      -4.913370137631e-13       0.000000000000e+00       2.321519792642e-11       8.852377425825e-12      -6.440545529046e-15 
   62       2.438379242111e-10       3.673175828816e-14      -5.460036637150e-13       0.000000000000e+00       2.236657049613e-11       8.583630167317e-12      -6.775373558182e-15 
   63       2.470598351561e-10       3.845444737411e-14      -6.025588503599e-13       0.000000000000e+00       2.155837540958e-11       8.325504254641e-12      -6.838125238724e-15 
   64       2.503161215134e-10       4.021519459240e-14      -6.610061703443e-13       0.000000000000e+00       2.078974335827e-11       8.077967601641e-12      -6.707507143354e-15 
   65       2.536081492947e-10       4.201263659695e-14      -7.213499347922e-13       0.000000000000e+00       2.005882678465e-11       7.840716409881e-12      -6.474571318699e-15 
   66       2.569365345793e-10       4.384527265042e-14      -7.835952950969e-13       0.000000000000e+00       1.936274714577e-11       7.613159910048e-12      -6.243222558648e-15 
   67       2.603010927769e-10       4.571146104751e-14      -8.477483687135e-13       0.000000000000e+00       1.869754217705e-11       7.394405103341e-12      -6.130725677673e-15 
   68       2.637013931863e-10       4.760953458511e-14      -9.138055003453e-13       0.000000000000e+00       1.805922675246e-11       7.183527603294e-12      -6.239407366734e-15 
   69       2.671386665666e-10       4.953818213699e-14      -9.817182375418e-13       0.000000000000e+00       1.744734296044e-11       6.980481996203e-12      -6.563969469084e-15 
   70       2.706141947196e-10       5.149613832615e-14      -1.051421451606e-12       0.000000000000e+00       1.686203793421e-11       6.785349380008e-12      -7.066219931449e-15 
   71       2.741287047701e-10       5.348207079659e-14      -1.122843424924e-12       0.000000000000e+00       1.630299008133e-11       6.598059785997e-12      -7.701991182573e-15 
   72       2.776823339092e-10       5.549457968126e-14      -1.195905698890e-12       0.000000000000e+00       1.576938482808e-11       6.418384237345e-12      -8.420910695100e-15 
   73       2.812745941380e-10       5.753219707013e-14      -1.270522921832e-12       0.000000000000e+00       1.525989036398e-11       6.245926807654e-12      -9.166171547445e-15 
   74       2.849043370117e-10       5.959338647818e-14      -1.346602696936e-12       0.000000000000e+00       1.477263338619e-11       6.080116679501e-12      -9.874302985673e-15 
   75       2.885697183828e-10       6.167654231340e-14      -1.424045430172e-12       0.000000000000e+00       1.430517484395e-11       5.920200202975e-12      -1.047494098538e-14 
   76       2.922689311916e-10       6.377995773719e-14      -1.502757751705e-12       0.000000000000e+00       1.385511694112e-11       5.765438410613e-12      -1.090696829727e-14 
   77       2.960026360437e-10       6.590172265535e-14      -1.582695941865e-12       0.000000000000e+00       1.342210555143e-11       5.615758699099e-12      -1.117083966731e-14 
   78       2.997719118659e-10       6.803980607229e-14      -1.663830184614e-12       0.000000000000e+00       1.300615058230e-11       5.471208108959e-12      -1.128542586115e-14 
   79       3.035775079882e-10       7.019208488738e-14      -1.746131820797e-12       0.000000000000e+00       1.260701598260e-11       5.331754742604e-12      -1.127259518009e-14 
   80       3.074198246373e-10       7.235634271486e-14      -1.829573474402e-12       0.000000000000e+00       1.222420843149e-11       5.197284035921e-12      -1.115731969248e-14 
   81       3.112988934293e-10       7.453026870368e-14      -1.914129178820e-12       0.000000000000e+00       1.185696602737e-11       5.067595029867e-12      -1.096778146515e-14 
   82       3.152143578634e-10       7.671145635737e-14      -1.999774503107e-12       0.000000000000e+00       1.150424697673e-11       4.942396642061e-12      -1.073547879479e-14 
   83       3.191654538144e-10       7.889740235392e-14      -2.086486678241e-12       0.000000000000e+00       1.116471828308e-11       4.821303938371e-12      -1.049533243934e-14 
   84       3.231513613017e-10       8.108562449221e-14      -2.174235397577e-12       0.000000000000e+00       1.083708055172e-11       4.703938490922e-12      -1.027851719508e-14 
   85       3.271723695285e-10       8.327404058228e-14      -2.262953189328e-12       0.000000000000e+00       1.052112904844e-11       4.590256734894e-12      -1.008935851675e-14 
   86       3.312288701142e-10       8.546065049538e-14      -2.352560341121e-12       0.000000000000e+00       1.021684862140e-11       4.480269463564e-12      -9.924782808605e-15 
   87       3.353209899202e-10       8.764342343198e-14      -2.442973759087e-12       0.000000000000e+00       9.924087646180e-12       4.373940631870e-12      -9.781235748141e-15 
   88       3.394485777823e-10       8.982029874380e-14      -2.534106937379e-12       0.000000000000e+00       9.642552363728e-12       4.271185377355e-12      -9.654666254342e-15 
   89       3.436111912439e-10       9.198918675582e-14      -2.625869927700e-12       0.000000000000e+00       9.371801218226e-12       4.171868041110e-12      -9.540510456005e-15 
   90       3.478080832893e-10       9.414796958822e-14      -2.718169308827e-12       0.000000000000e+00       9.111239195015e-12       4.075800188717e-12      -9.433675660038e-15 
   91       3.520381890763e-10       9.629450197845e-14      -2.810908156132e-12       0.000000000000e+00       8.860112158496e-12       3.982738631191e-12      -9.328524319761e-15 
   92       3.563001126696e-10       9.842661210318e-14      -2.903986011111e-12       0.000000000000e+00       8.617501190037e-12       3.892383445929e-12      -9.218858003210e-15 
   93       3.605924982301e-10       1.005421052316e-13      -2.997304056501e-12       0.000000000000e+00       8.382541098489e-12       3.804453181107e-12      -9.099305757876e-15 
   94       3.649152362617e-10       1.026387735285e-13      -3.090781598200e-12       0.000000000000e+00       8.155125843269e-12       3.718927705887e-12      -8.969762884928e-15 
   95       3.692684150987e-10       1.047143892520e-13      -3.184342017413e-12       0.000000000000e+00       7.935299231984e-12       3.635838395773e-12      -8.831593222287e-15 
   96       3.736519447320e-10       1.067667029034e-13      -3.277907826367e-12       0.000000000000e+00       7.723037650872e-12       3.555193296328e-12      -8.686287434660e-15 
   97       3.780655488193e-10       1.087934440878e-13      -3.371400709285e-12       0.000000000000e+00       7.518247479890e-12       3.476976203596e-12      -8.535466259760e-15 
   98       3.825087566954e-10       1.107923223748e-13      -3.464741563371e-12       0.000000000000e+00       7.320762507802e-12       3.401145744532e-12      -8.380883754531e-15 
   99       3.869808953826e-10       1.127610281598e-13      -3.557850539786e-12       0.000000000000e+00       7.130341347260e-12       3.327634457434e-12      -8.224430541364e-15 
  100       3.914810816015e-10       1.146972335244e-13      -3.650647084634e-12       0.000000000000e+00       6.946664849892e-12       3.256347872367e-12      -8.068137054323e-15 
  101       3.960082137808e-10       1.165985930975e-13      -3.743049979936e-12       0.000000000000e+00       6.769333521390e-12       3.187163591590e-12      -7.914176785365e-15 
  102       4.005609640680e-10       1.184627449164e-13      -3.834977384617e-12       0.000000000000e+00       6.597864936591e-12       3.119930369991e-12      -7.764869530562e-15 
  103       4.051377703400e-10       1.202873112871e-13      -3.926346875483e-12       0.000000000000e+00       6.431691154568e-12       3.054467195506e-12      -7.622684636319e-15 
  104       4.097371174145e-10       1.220699753714e-13      -4.017075021510e-12       0.000000000000e+00       6.270287697966e-12       2.990606990863e-12      -7.489712047016e-15 
  105       4.143584411587e-10       1.238087208753e-13      -4.107075952960e-12       0.000000000000e+00       6.113585901509e-12       2.928336422745e-12      -7.365987078754e-15 
  106       4.190013321861e-10       1.255016264947e-13      -4.196262674473e-12       0.000000000000e+00       5.961611706061e-12       2.867673352382e-12      -7.250944345360e-15 
  107       4.236652528081e-10       1.271467947534e-13      -4.284547549919e-12       0.000000000000e+00       5.814357943091e-12       2.808623476699e-12      -7.143927178094e-15 
