# dimensionless total lensed [l(l+1)/2pi] C_l's
# for l=2 to 2500, i.e. number of multipoles equal to 2499
#
# -> if you prefer output in CAMB/HealPix/LensPix units/order, set 'format' to 'camb' in input file
# -> if you don't want to see such a header, set 'headers' to 'no' in input file
# -> for CMB lensing (phi), these are C_l^phi-phi for the lensing potential.
#    Remember the conversion factors:
#    C_l^dd (deflection) = l(l+1) C_l^phi-phi
#    C_l^gg (shear/convergence) = 1/4 (l(l+1))^2 C_l^phi-phi
#
# 1:l     2:TT                     3:EE                     4:TE                     5:BB                     6:phiphi                 7:TPhi                   8:Ephi               
    2       5.905281618753e-10       3.381283396540e-15       8.130451936257e-13       4.186728763857e-19       2.284683622895e-08      -2.957227434262e-09      -2.236502663306e-12 
    3       4.279888331561e-10       6.771649364572e-15       8.089439579539e-13       8.377372946251e-19       1.443976488994e-08      -1.917683138481e-09      -1.868375396986e-12 
    4       3.410655613319e-10       1.031523249367e-14       7.849684180530e-13       1.397089144800e-18       1.004904208963e-08      -1.374492128913e-09      -1.603888873774e-12 
    5       2.874263922784e-10       1.301980557914e-14       7.424873510247e-13       2.097223507400e-18       7.464531880937e-09      -1.048064530182e-09      -1.373659877011e-12 
    6       2.511030683156e-10       1.428009949039e-14       6.842881616945e-13       2.938736525520e-18       5.811552522676e-09      -8.327281258744e-10      -1.155253076355e-12 
    7       2.249955068326e-10       1.400531869339e-14       6.176909938839e-13       3.922311095415e-18       4.689084418392e-09      -6.815671655457e-10      -9.497182826091e-13 
    8       2.055062033717e-10       1.247966122756e-14       5.482766766326e-13       5.048700501432e-18       3.888061767419e-09      -5.704479491664e-10      -7.599726861472e-13 
    9       1.905351216535e-10       1.019220823798e-14       4.800865330719e-13       6.318710406561e-18       3.290472361264e-09      -4.857851379014e-10      -5.883900326881e-13 
   10       1.788280978291e-10       7.669611676798e-15       4.157768184939e-13       7.733179655089e-18       2.826410642501e-09      -4.193778675580e-10      -4.366282572456e-13 
   11       1.695545351467e-10       5.348852137520e-15       3.569401208227e-13       9.292960378798e-18       2.073588271819e-09      -3.461061920662e-10      -3.063955973854e-13 
   12       1.620961357869e-10       3.507918687156e-15       3.046329136470e-13       1.099889792182e-17       1.794398563505e-09      -3.035919776829e-10      -1.971693927491e-13 
   13       1.561009141757e-10       2.252375075986e-15       2.594763045156e-13       1.285181111072e-17       1.567703326141e-09      -2.683642019363e-10      -1.079880935736e-13 
   14       1.512948130713e-10       1.544048052097e-15       2.217828326371e-13       1.485247339498e-17       1.381012550967e-09      -2.390048150193e-10      -3.881275854670e-14 
   15       1.473923563235e-10       1.253089527464e-15       1.916838336580e-13       1.700159536841e-17       1.225371252057e-09      -2.140704579304e-10       1.243066075890e-14 
   16       1.442462464561e-10       1.214930181618e-15       1.689917737541e-13       1.929980915395e-17       1.094212603887e-09      -1.928281771178e-10       4.687545171638e-14 
   17       1.417445812383e-10       1.277867721377e-15       1.532151220995e-13       2.174765509312e-17       9.826388418755e-10      -1.744167248636e-10       6.710564112825e-14 
   18       1.397272579682e-10       1.328949036588e-15       1.436938394577e-13       2.434557019207e-17       8.864462705366e-10      -1.584595325124e-10       7.524504167984e-14 
   19       1.381679321789e-10       1.326526761813e-15       1.398584019752e-13       2.709388519248e-17       8.041873082857e-10      -1.447115694570e-10       7.338498010232e-14 
   20       1.369654216008e-10       1.253028244205e-15       1.405538837581e-13       2.999280963194e-17       7.321790657809e-10      -1.325022612769e-10       6.470672053090e-14 
   21       1.360837985192e-10       1.134112832539e-15       1.448985852072e-13       3.304244647093e-17       6.691488232988e-10      -1.216625766812e-10       5.126279191701e-14 
   22       1.354474318461e-10       1.015241829374e-15       1.517881423293e-13       3.624277590732e-17       6.135477339457e-10      -1.120140827064e-10       3.514101311765e-14 
   23       1.350456396708e-10       9.277029821171e-16       1.603871968463e-13       3.959368304025e-17       5.645191427295e-10      -1.034433441682e-10       1.803781995964e-14 
   24       1.348469817323e-10       8.965709851742e-16       1.697900329362e-13       4.309494145452e-17       5.208077411720e-10      -9.574976371287e-11       1.638138182767e-15 
   25       1.348323530008e-10       9.237721033799e-16       1.793478843088e-13       4.674625820627e-17       4.818396443642e-10      -8.882670384998e-11      -1.301988223628e-14 
   26       1.349613594998e-10       9.991953076793e-16       1.884517819770e-13       5.054725145244e-17       4.468603029171e-10      -8.253584320884e-11      -2.514369504860e-14 
   27       1.352297327927e-10       1.102862898872e-15       1.967796399238e-13       5.449749859577e-17       4.154083017274e-10      -7.683236435360e-11      -3.433151418077e-14 
   28       1.356264066977e-10       1.210746600342e-15       2.041114433075e-13       5.859652489045e-17       3.868966930934e-10      -7.165939437209e-11      -4.040969645240e-14 
   29       1.361500783984e-10       1.313293729985e-15       2.103810656934e-13       6.284389457688e-17       3.611547134985e-10      -6.698683338143e-11      -4.343996001363e-14 
   30       1.367800194139e-10       1.404397473494e-15       2.155929628905e-13       6.723914731584e-17       3.378803636381e-10      -6.274338858302e-11      -4.369767201005e-14 
   31       1.374788357360e-10       1.479705867730e-15       2.198014350312e-13       7.178181119699e-17       3.165669861986e-10      -5.882216186297e-11      -4.162315231329e-14 
   32       1.382490326536e-10       1.546872072484e-15       2.231554924818e-13       7.647154006760e-17       2.970891701221e-10      -5.520804500141e-11      -3.765939132647e-14 
   33       1.390938274163e-10       1.619470698366e-15       2.258786202770e-13       8.130803563967e-17       2.792957340949e-10      -5.189102098262e-11      -3.238041441435e-14 
   34       1.400057830648e-10       1.711791588615e-15       2.282285147689e-13       8.629104912913e-17       2.629209763386e-10      -4.884006238374e-11      -2.645806885698e-14 
   35       1.409845411642e-10       1.829040139413e-15       2.303803916915e-13       9.142049029717e-17       2.478712187826e-10      -4.603811795350e-11      -2.034992994117e-14 
   36       1.420228318407e-10       1.973795936046e-15       2.325068739011e-13       9.669636996767e-17       2.340156385761e-10      -4.345518154504e-11      -1.451555008745e-14 
   37       1.431068530730e-10       2.147766200264e-15       2.347773136841e-13       1.021187957707e-16       2.211620470664e-10      -4.105011680488e-11      -9.422270783037e-15 
   38       1.442381065583e-10       2.349010899356e-15       2.372447752641e-13       1.076880265116e-16       2.092716517757e-10      -3.881608689901e-11      -5.263931295687e-15 
   39       1.454171535610e-10       2.573693470261e-15       2.399211983158e-13       1.134044518093e-16       1.983019585916e-10      -3.674765982871e-11      -2.150978120454e-15 
   40       1.466367874705e-10       2.816712416063e-15       2.428060266855e-13       1.192685902162e-16       1.881416302017e-10      -3.482728238689e-11      -1.840029608375e-16 
   41       1.478862453533e-10       3.073092176256e-15       2.458702597067e-13       1.252810788185e-16       1.786481987331e-10      -3.303157579129e-11       5.829161620114e-16 
   42       1.491673358191e-10       3.342908481621e-15       2.490054573313e-13       1.314426140842e-16       1.697903264158e-10      -3.135524839068e-11       2.631491931678e-16 
   43       1.504822699844e-10       3.627820596226e-15       2.520559671785e-13       1.377540084835e-16       1.615418027919e-10      -2.979317424292e-11      -9.416750181505e-16 
   44       1.518287186565e-10       3.929746920364e-15       2.548298990877e-13       1.442162175441e-16       1.538389413091e-10      -2.833315493270e-11      -2.769752002938e-15 
   45       1.532022368372e-10       4.250330727999e-15       2.571235700332e-13       1.508302664486e-16       1.466026973225e-10      -2.696011410269e-11      -4.936869027644e-15 
   46       1.546054037596e-10       4.589111606357e-15       2.588089676254e-13       1.575969835217e-16       1.398199029866e-10      -2.567149427393e-11      -7.272222878061e-15 
   47       1.560406919441e-10       4.944832833758e-15       2.597685266598e-13       1.645172016004e-16       1.334812685661e-10      -2.446551177853e-11      -9.616672474222e-15 
   48       1.575076002590e-10       5.315926947315e-15       2.598699191076e-13       1.715918367888e-16       1.275569198191e-10      -2.333652454878e-11      -1.178324827921e-14 
   49       1.590023927624e-10       5.700499093349e-15       2.589652967656e-13       1.788218922832e-16       1.219948740926e-10      -2.227474665163e-11      -1.355570752647e-14 
   50       1.605200665007e-10       6.096919049576e-15       2.569226266525e-13       1.862083401854e-16       1.167364154320e-10      -2.126919385620e-11      -1.473664976600e-14 
   51       1.620614904856e-10       6.505825365821e-15       2.537314815784e-13       1.937517202505e-16       1.117706754055e-10      -2.031812519780e-11      -1.531061235045e-14 
   52       1.636277530841e-10       6.928636444810e-15       2.494246561035e-13       2.014524388347e-16       1.070922334641e-10      -1.942094221391e-11      -1.532274799690e-14 
   53       1.652179498674e-10       7.367001125749e-15       2.440493185954e-13       2.093108795165e-16       1.026848014293e-10      -1.857507537446e-11      -1.483400015860e-14 
   54       1.668290273449e-10       7.822810678115e-15       2.376677641264e-13       2.173274011788e-16       9.852049483521e-11      -1.777585066506e-11      -1.392199050250e-14 
   55       1.684573495439e-10       8.297913408848e-15       2.303480060661e-13       2.255022460099e-16       9.456818753958e-11      -1.701794450468e-11      -1.267678783674e-14 
   56       1.701042114708e-10       8.793147983917e-15       2.221310890497e-13       2.338352411332e-16       9.082267527427e-11      -1.630047739366e-11      -1.118495090486e-14 
   57       1.717714215995e-10       9.309090971137e-15       2.130569746069e-13       2.423260194978e-16       8.728148064645e-11      -1.562295194714e-11      -9.543075965826e-15 
   58       1.734596118256e-10       9.846333585270e-15       2.031743402592e-13       2.509740981588e-16       8.393603801395e-11      -1.498370544781e-11      -7.863241110749e-15 
   59       1.751681483239e-10       1.040548209532e-14       1.925409365213e-13       2.597788728502e-16       8.077131872166e-11      -1.437983831222e-11      -6.273694316484e-15 
   60       1.768950424066e-10       1.098715823183e-14       1.812239439033e-13       2.687396125587e-16       7.776545633792e-11      -1.380714255712e-11      -4.919541499192e-15 
   61       1.786380101233e-10       1.159187016943e-14       1.692802589072e-13       2.778555027324e-16       7.489574896052e-11      -1.326123305563e-11      -3.929912964741e-15 
   62       1.803981306572e-10       1.221959071246e-14       1.566913734897e-13       2.871257985198e-16       7.215908833596e-11      -1.274139985918e-11      -3.309294101121e-15 
   63       1.821768546481e-10       1.287008472045e-14       1.434144455801e-13       2.965496964538e-16       6.955547211929e-11      -1.224749756800e-11      -3.022912649328e-15 
   64       1.839748762607e-10       1.354302655207e-14       1.294008059601e-13       3.061262850442e-16       6.708186243197e-11      -1.177878613438e-11      -3.027739787827e-15 
   65       1.857920804918e-10       1.423799636587e-14       1.145956784275e-13       3.158545408946e-16       6.473201343794e-11      -1.133389749267e-11      -3.272114571003e-15 
   66       1.876274904762e-10       1.495447642104e-14       9.893789996040e-14       3.257333248185e-16       6.249629891952e-11      -1.091080218912e-11      -3.695368367614e-15 
   67       1.894792147937e-10       1.569184737815e-14       8.235964088103e-14       3.357613779559e-16       6.036153985342e-11      -1.050677601182e-11      -4.227449299244e-15 
   68       1.913452953121e-10       1.644954222102e-14       6.479687097683e-14       3.459375334413e-16       5.831449561817e-11      -1.011911114828e-11      -4.799432437126e-15 
   69       1.932265679956e-10       1.722755250812e-14       4.622384599508e-14       3.562614098923e-16       5.635354449509e-11      -9.747491581195e-12      -5.378362870628e-15 
   70       1.951242897739e-10       1.802601852685e-14       2.662513841704e-14       3.667328521095e-16       5.447907106886e-11      -9.392041274386e-12      -5.938830525348e-15 
   71       1.970392601651e-10       1.884508107467e-14       5.985504871413e-15       3.773517295575e-16       5.268993469384e-11      -9.052608160407e-12      -6.452613669643e-15 
   72       1.989717916136e-10       1.968488179108e-14      -1.571011886905e-14       3.881179379949e-16       5.098339076912e-11      -8.728749812083e-12      -6.888581761234e-15 
   73       2.009216798283e-10       2.054556348960e-14      -3.847662289078e-14       3.990314011031e-16       4.935501201350e-11      -8.419719114054e-12      -7.212598293792e-15 
   74       2.028881741208e-10       2.142727048972e-14      -6.232872814274e-14       4.100920721160e-16       4.779860974048e-11      -8.124449934326e-12      -7.387423643536e-15 
   75       2.048699477435e-10       2.233014894895e-14      -8.728099143973e-14       4.212999354490e-16       4.630615513328e-11      -7.841542795816e-12      -7.372617915827e-15 
   76       2.068656965715e-10       2.325430364079e-14      -1.133412993566e-13       4.326550974469e-16       4.486976253424e-11      -7.569612500984e-12      -7.137933319847e-15 
   77       2.088761267556e-10       2.419965845584e-14      -1.404899691442e-13       4.441580741315e-16       4.348823087143e-11      -7.308435863285e-12      -6.706525500098e-15 
   78       2.109022773217e-10       2.516607094735e-14      -1.686968281486e-13       4.558095591297e-16       4.216155760732e-11      -7.057988210557e-12      -6.119482101043e-15 
   79       2.129449074767e-10       2.615337307640e-14      -1.979272603938e-13       4.676103426113e-16       4.088894669561e-11      -6.818093204685e-12      -5.423208843793e-15 
   80       2.150044798309e-10       2.716137065072e-14      -2.281420780692e-13       4.795613147457e-16       3.966877213943e-11      -6.588415935290e-12      -4.669608986396e-15 
   81       2.170811436211e-10       2.818984276361e-14      -2.592973930175e-13       4.916634691585e-16       3.849854154968e-11      -6.368456013415e-12      -3.916262784135e-15 
   82       2.191747179334e-10       2.923854123276e-14      -2.913444882225e-13       5.039179063882e-16       3.737485970328e-11      -6.157540665215e-12      -3.226606949821e-15 
   83       2.212846749259e-10       3.030719003916e-14      -3.242296892967e-13       5.163258373434e-16       3.629339210145e-11      -5.954817825644e-12      -2.670114114083e-15 
   84       2.234104802787e-10       3.139550806916e-14      -3.579066789358e-13       5.288883471841e-16       3.524991596514e-11      -5.759464562496e-12      -2.306041219880e-15 
   85       2.255527161391e-10       3.250328290169e-14      -3.923760673942e-13       5.416056344212e-16       3.424375323583e-11      -5.571367176452e-12      -2.131186058611e-15 
   86       2.277121144423e-10       3.363030828147e-14      -4.276521768359e-13       5.544776514270e-16       3.327484252554e-11      -5.390541709043e-12      -2.123758637277e-15 
   87       2.298892056219e-10       3.477636173643e-14      -4.637512610465e-13       5.675043322341e-16       3.234268438315e-11      -5.216925397870e-12      -2.258946928112e-15 
   88       2.320843078366e-10       3.594120440820e-14      -5.006915860471e-13       5.806855919649e-16       3.144632312889e-11      -5.050373389279e-12      -2.508820176513e-15 
   89       2.342975161968e-10       3.712458088264e-14      -5.384935107072e-13       5.940213262624e-16       3.058432868889e-11      -4.890655451057e-12      -2.842232208964e-15 
   90       2.365286919910e-10       3.832621902041e-14      -5.771795673578e-13       6.075114107204e-16       2.975477842971e-11      -4.737452685111e-12      -3.224724740963e-15 
   91       2.387774519131e-10       3.954582978741e-14      -6.167745424050e-13       6.211557003137e-16       2.895523899287e-11      -4.590354240157e-12      -3.618430684954e-15 
   92       2.410431572884e-10       4.078310708537e-14      -6.573055569429e-13       6.349540288284e-16       2.818274812936e-11      -4.448854024405e-12      -3.981977458252e-15 
   93       2.433252314704e-10       4.203772741557e-14      -6.987949304609e-13       6.489061370900e-16       2.743451776115e-11      -4.312466826859e-12      -4.279158022573e-15 
   94       2.456241900360e-10       4.330934918049e-14      -7.412373691216e-13       6.630114465369e-16       2.671020357854e-11      -4.181103799258e-12      -4.506645813725e-15 
   95       2.479407463337e-10       4.459761296331e-14      -7.846194796801e-13       6.772692503805e-16       2.600994479256e-11      -4.054747631502e-12      -4.670288760812e-15 
   96       2.502754909349e-10       4.590214151582e-14      -8.289266624861e-13       6.916787802468e-16       2.533366516827e-11      -3.933336548725e-12      -4.776736304847e-15 
   97       2.526288853654e-10       4.722253958666e-14      -8.741430930328e-13       7.062392046292e-16       2.468106475939e-11      -3.816762663079e-12      -4.833463059891e-15 
   98       2.550012558364e-10       4.855839374956e-14      -9.202517035037e-13       7.209496273418e-16       2.405161164307e-11      -3.704870325530e-12      -4.848792474199e-15 
   99       2.573927869764e-10       4.990927223157e-14      -9.672341643216e-13       7.358090859718e-16       2.344453365451e-11      -3.597454477639e-12      -4.831920491356e-15 
  100       2.598035155623e-10       5.127472474127e-14      -1.015070865696e-12       7.508165503328e-16       2.285881012170e-11      -3.494259003354e-12      -4.792939211419e-15 
  101       2.622333242506e-10       5.265428229702e-14      -1.063740899170e-12       7.659709209174e-16       2.229316360012e-11      -3.394975080800e-12      -4.742860552060e-15 
  102       2.646819353094e-10       5.404745705520e-14      -1.113222039172e-12       7.812710273505e-16       2.174605160740e-11      -3.299239534062e-12      -4.693639909706e-15 
  103       2.671489043492e-10       5.545374213844e-14      -1.163490724558e-12       7.967156268417e-16       2.121565835804e-11      -3.206633184979e-12      -4.658199820681e-15 
  104       2.696338103578e-10       5.687260042674e-14      -1.214523278210e-12       8.123037543498e-16       2.070030761056e-11      -3.116772107917e-12      -4.647687795771e-15 
  105       2.721368685425e-10       5.830342957654e-14      -1.266299793190e-12       8.280358302772e-16       2.019978252614e-11      -3.029598983289e-12      -4.662776989863e-15 
  106       2.746583889730e-10       5.974559193399e-14      -1.318800739590e-12       8.439127002209e-16       1.971416952474e-11      -2.945128212134e-12      -4.701229020029e-15 
  107       2.771985836086e-10       6.119842486062e-14      -1.372005768579e-12       8.599352989137e-16       1.924344950021e-11      -2.863355907976e-12      -4.760548201281e-15 
