# Matter power spectrum P(k) at redshift z=0
# for k=1.10516e-05 to 1.55847 h/Mpc,
# number of wavenumbers equal to 617
#    1:k (h/Mpc)              2:P (Mpc/h)^3        
       1.105158992194e-05       4.206536363650e+01 
       2.394404755347e-05       8.853206294417e+01 
       3.688350872999e-05       1.342534430394e+02 
       4.990485519253e-05       1.797686694259e+02 
       6.304356062528e-05       2.254062626248e+02 
       7.633600752906e-05       2.714239498497e+02 
       8.981981443010e-05       3.180486790090e+02 
       1.035341777765e-04       3.654936775807e+02 
       1.175202329073e-04       4.139668749730e+02 
       1.318214385139e-04       4.636758450712e+02 
       1.464839890152e-04       5.148313710067e+02 
       1.615572592040e-04       5.676495767817e+02 
       1.770942853357e-04       6.223536338233e+02 
       1.931522864408e-04       6.791750639648e+02 
       2.097932289657e-04       7.383541295353e+02 
       2.270844367282e-04       8.001401689942e+02 
       2.450992464613e-04       8.647910898182e+02 
       2.639177066725e-04       9.325723287999e+02 
       2.836273138957e-04       1.003755006414e+03 
       3.043237753214e-04       1.078613134043e+03 
       3.261117798760e-04       1.157419896606e+03 
       3.491057506679e-04       1.240442791403e+03 
       3.734305399613e-04       1.327937633850e+03 
       3.992220132274e-04       1.420141474175e+03 
       4.266274514008e-04       1.517264806793e+03 
       4.558056808270e-04       1.619482914101e+03 
       4.869268199430e-04       1.726927869424e+03 
       5.201715131615e-04       1.839681250016e+03 
       5.557295099891e-04       1.957768792624e+03 
       5.937974471170e-04       2.081158662559e+03 
       6.345757106261e-04       2.209763736363e+03 
       6.782643025101e-04       2.343448930894e+03 
       7.250577167203e-04       2.482043457415e+03 
       7.751389461860e-04       2.625356941113e+03 
       8.286728862743e-04       2.773197541218e+03 
       8.857995527213e-04       2.925388118595e+03 
       9.466276623561e-04       3.081778846329e+03 
       1.011229195676e-03       3.242251245533e+03 
       1.079635538410e-03       3.406714871610e+03 
       1.151835669073e-03       3.575093775521e+03 
       1.227776633535e-03       3.747309778643e+03 
       1.307366267257e-03       3.923263375792e+03 
       1.390477850832e-03       4.102803253805e+03 
       1.476956173697e-03       4.285738115871e+03 
       1.566624373033e-03       4.471844257232e+03 
       1.659290918462e-03       4.660832414323e+03 
       1.754756207925e-03       4.852370965890e+03 
       1.852818389242e-03       5.046097602320e+03 
       1.953278185627e-03       5.241631641629e+03 
       2.055942650717e-03       5.438585617614e+03 
       2.160627891636e-03       5.636575735138e+03 
       2.267160871998e-03       5.835230191026e+03 
       2.375380444237e-03       6.034195435656e+03 
       2.485137770570e-03       6.233140493256e+03 
       2.596296283349e-03       6.431758238780e+03 
       2.708731316755e-03       6.629768668520e+03 
       2.822329518819e-03       6.826917238407e+03 
       2.936988129622e-03       7.022974677527e+03 
       3.052614190543e-03       7.217736540590e+03 
       3.169123731660e-03       7.411020096955e+03 
       3.286440970046e-03       7.602664609400e+03 
       3.404497540576e-03       7.792528625294e+03 
       3.523231772522e-03       7.980488126163e+03 
       3.642588019115e-03       8.166434423305e+03 
       3.762516042992e-03       8.350273993113e+03 
       3.882970457517e-03       8.531925253432e+03 
       4.003910222079e-03       8.711319373677e+03 
       4.125298188302e-03       8.888396695673e+03 
       4.247100693474e-03       9.063105882591e+03 
       4.369287197218e-03       9.235406102101e+03 
       4.491829957407e-03       9.405262095301e+03 
       4.614703741434e-03       9.572646721837e+03 
       4.737885569168e-03       9.737536612063e+03 
       4.861354484200e-03       9.899914736400e+03 
       4.985091350271e-03       1.005976863932e+04 
       5.109078670060e-03       1.021709318061e+04 
       5.233300423802e-03       1.037188462419e+04 
       5.357741925484e-03       1.052414072669e+04 
       5.482389694591e-03       1.067385984833e+04 
       5.607231341633e-03       1.082105559767e+04 
       5.732255465862e-03       1.096573061158e+04 
       5.857451563786e-03       1.110789719196e+04 
       5.982809947260e-03       1.124755955986e+04 
       6.108321670047e-03       1.138473336307e+04 
       6.233978461915e-03       1.151943238096e+04 
       6.359772669414e-03       1.165166202309e+04 
       6.485697202595e-03       1.178145134216e+04 
       6.611745487010e-03       1.190882395527e+04 
       6.737911420424e-03       1.203379675308e+04 
       6.864189333723e-03       1.215637849573e+04 
       6.990573955573e-03       1.227659054547e+04 
       7.117060380418e-03       1.239445231191e+04 
       7.243644039487e-03       1.250998883110e+04 
       7.370320674477e-03       1.262320062611e+04 
       7.497086313647e-03       1.273412436479e+04 
       7.623937250074e-03       1.284278295845e+04 
       7.750870021854e-03       1.294919484020e+04 
       7.877881394051e-03       1.305336356495e+04 
       8.004968342225e-03       1.315534217615e+04 
       8.132128037382e-03       1.325514282707e+04 
       8.259357832211e-03       1.335278061705e+04 
       8.386655248482e-03       1.344828461310e+04 
       8.514017965503e-03       1.354167446262e+04 
       8.641443809520e-03       1.363296081235e+04 
       8.768930743996e-03       1.372216604935e+04 
       8.896476860672e-03       1.380932843497e+04 
       9.024080371340e-03       1.389446568993e+04 
       9.151739600277e-03       1.397759301232e+04 
       9.279452977264e-03       1.405874411811e+04 
       9.407219031157e-03       1.413792121424e+04 
       9.535036383948e-03       1.421513906109e+04 
       9.662903745279e-03       1.429044796816e+04 
       9.790819907373e-03       1.436385284270e+04 
       9.918783740346e-03       1.443537579868e+04 
       1.004679418787e-02       1.450504094007e+04 
       1.017485026314e-02       1.457286585072e+04 
       1.030295104518e-02       1.463885137100e+04 
       1.043109567534e-02       1.470305736211e+04 
       1.055928335415e-02       1.476547649988e+04 
       1.068751333829e-02       1.482613820931e+04 
       1.081578493788e-02       1.488506081940e+04 
       1.094409751387e-02       1.494227836888e+04 
       1.107245047569e-02       1.499775825367e+04 
       1.120084327900e-02       1.505159171357e+04 
       1.132927542368e-02       1.510376404653e+04 
       1.145774645187e-02       1.515428230817e+04 
       1.158625594618e-02       1.520318644490e+04 
       1.171480352810e-02       1.525044207968e+04 
       1.184338885637e-02       1.529614883000e+04 
       1.197201162561e-02       1.534028969611e+04 
       1.210067156496e-02       1.538287852319e+04 
       1.222936843685e-02       1.542391455215e+04 
       1.235810203583e-02       1.546344134818e+04 
       1.248687218753e-02       1.550146177423e+04 
       1.261567874761e-02       1.553802790921e+04 
       1.274452160091e-02       1.557310666621e+04 
       1.287340066054e-02       1.560675222984e+04 
       1.300231586710e-02       1.563897042783e+04 
       1.313126718796e-02       1.566979040729e+04 
       1.326025461657e-02       1.569919393524e+04 
       1.338927817183e-02       1.572722301502e+04 
       1.351833789751e-02       1.575390073836e+04 
       1.364743386176e-02       1.577924053487e+04 
       1.377656615656e-02       1.580324135135e+04 
       1.390573489734e-02       1.582594569836e+04 
       1.403494022252e-02       1.584734022526e+04 
       1.416418229317e-02       1.586745953863e+04 
       1.429346129271e-02       1.588632454966e+04 
       1.442277742653e-02       1.590392582289e+04 
       1.455213092181e-02       1.592031355157e+04 
       1.468152202723e-02       1.593545256196e+04 
       1.481095101280e-02       1.594940530874e+04 
       1.494041816965e-02       1.596217356473e+04 
       1.506992380992e-02       1.597376713044e+04 
       1.519946826658e-02       1.598419516849e+04 
       1.532905189340e-02       1.599351367721e+04 
       1.545867506480e-02       1.600168438247e+04 
       1.558833817587e-02       1.600874677065e+04 
       1.571804164229e-02       1.601469542457e+04 
       1.584778590034e-02       1.601959038810e+04 
       1.597757140692e-02       1.602340230064e+04 
       1.610739863955e-02       1.602615806260e+04 
       1.623726809648e-02       1.602788999158e+04 
       1.636718029670e-02       1.602860300104e+04 
       1.649713578009e-02       1.602826961489e+04 
       1.662713510748e-02       1.602695081005e+04 
       1.675717886081e-02       1.602465367062e+04 
       1.688726764327e-02       1.602136847604e+04 
       1.701740207944e-02       1.601712479517e+04 
       1.714758281551e-02       1.601195218069e+04 
       1.727781051945e-02       1.600586725247e+04 
       1.740808588124e-02       1.599881202222e+04 
       1.753840961311e-02       1.599090212702e+04 
       1.766878244973e-02       1.598204943024e+04 
       1.779920514858e-02       1.597234777785e+04 
       1.792967849013e-02       1.596178010777e+04 
       1.806020327820e-02       1.595036494973e+04 
       1.819078034025e-02       1.593809284074e+04 
       1.832141052772e-02       1.592501877688e+04 
       1.845209471640e-02       1.591108963962e+04 
       1.858283380674e-02       1.589638712588e+04 
       1.871362872429e-02       1.588088009956e+04 
       1.884448042007e-02       1.586461338856e+04 
       1.897538987098e-02       1.584754680661e+04 
       1.910635808028e-02       1.582974845247e+04 
       1.923738607796e-02       1.581119086896e+04 
       1.936847492130e-02       1.579191793006e+04 
       1.949962569530e-02       1.577192602141e+04 
       1.963083951320e-02       1.575121279965e+04 
       1.976211751701e-02       1.572980694737e+04 
       1.989346087803e-02       1.570772823517e+04 
       2.002487079747e-02       1.568494422789e+04 
       2.015634850696e-02       1.566152181244e+04 
       2.028789526921e-02       1.563744227927e+04 
       2.041951237858e-02       1.561272157061e+04 
       2.055120116180e-02       1.558740129080e+04 
       2.068296297854e-02       1.556140202223e+04 
       2.081479922218e-02       1.553484541522e+04 
       2.094671132048e-02       1.550767629240e+04 
       2.107870073630e-02       1.547994251420e+04 
       2.121076896840e-02       1.545159910565e+04 
       2.134291755219e-02       1.542271014294e+04 
       2.147514806053e-02       1.539326774582e+04 
       2.160746210459e-02       1.536326046681e+04 
       2.173986133466e-02       1.533274019661e+04 
       2.187234744110e-02       1.530167075130e+04 
       2.200492215520e-02       1.527011145659e+04 
       2.213758725013e-02       1.523801781725e+04 
       2.227034454191e-02       1.520547473952e+04 
       2.240319589045e-02       1.517244277479e+04 
       2.253614320052e-02       1.513891056579e+04 
       2.266918842283e-02       1.510490953934e+04 
       2.280233355518e-02       1.507047807266e+04 
       2.293558064352e-02       1.503560528030e+04 
       2.306893178316e-02       1.500026079401e+04 
       2.320238911995e-02       1.496449893675e+04 
       2.333595485155e-02       1.492834592299e+04 
       2.346963122867e-02       1.489175009021e+04 
       2.360342055643e-02       1.485478432169e+04 
       2.373732519570e-02       1.481740666440e+04 
       2.387134756452e-02       1.477962765386e+04 
       2.400549013954e-02       1.474149064675e+04 
       2.413975545752e-02       1.470300666909e+04 
       2.427414611686e-02       1.466419592576e+04 
       2.440866477925e-02       1.462494236161e+04 
       2.454331417123e-02       1.458543577765e+04 
       2.467809708597e-02       1.454556984117e+04 
       2.481301638498e-02       1.450536875090e+04 
       2.494807499993e-02       1.446481014739e+04 
       2.508327593456e-02       1.442401188061e+04 
       2.521862226654e-02       1.438290942178e+04 
       2.535411714953e-02       1.434147486912e+04 
       2.548976381525e-02       1.429980569643e+04 
       2.562556557555e-02       1.425784682602e+04 
       2.576152582470e-02       1.421557301887e+04 
       2.589764804161e-02       1.417309818379e+04 
       2.603393579222e-02       1.413031094722e+04 
       2.617039273195e-02       1.408732402064e+04 
       2.630702260819e-02       1.404408240700e+04 
       2.644382926295e-02       1.400060270761e+04 
       2.658081663554e-02       1.395689986417e+04 
       2.671798876540e-02       1.391292828063e+04 
       2.685534979497e-02       1.386882469548e+04 
       2.699290397272e-02       1.382448578231e+04 
       2.713065565622e-02       1.377998510555e+04 
       2.726860931544e-02       1.373527724352e+04 
       2.740676953601e-02       1.369032648688e+04 
       2.754514102273e-02       1.364525304187e+04 
       2.768372860316e-02       1.359996469271e+04 
       2.782253723135e-02       1.355452177541e+04 
       2.796157199167e-02       1.350893479524e+04 
       2.810083810287e-02       1.346319440693e+04 
       2.824034092222e-02       1.341727150932e+04 
       2.838008594982e-02       1.337124225656e+04 
       2.852007883313e-02       1.332508011550e+04 
       2.866032537162e-02       1.327875549499e+04 
       2.880083152159e-02       1.323228491517e+04 
       2.894160340124e-02       1.318578931669e+04 
       2.908264729592e-02       1.313913593446e+04 
       2.922396966354e-02       1.309232567298e+04 
       2.936557714030e-02       1.304537101094e+04 
       2.950747654654e-02       1.299838421221e+04 
       2.964967489289e-02       1.295131504351e+04 
       2.979217938673e-02       1.290412251885e+04 
       2.993499743877e-02       1.285685660636e+04 
       3.007813667006e-02       1.280953831434e+04 
       3.022160491923e-02       1.276209233718e+04 
       3.036541025002e-02       1.271460924112e+04 
       3.050956095916e-02       1.266702888385e+04 
       3.065406558462e-02       1.261940243332e+04 
       3.079893291419e-02       1.257174250364e+04 
       3.094417199444e-02       1.252396994510e+04 
       3.108979214008e-02       1.247618310855e+04 
       3.123580294378e-02       1.242835851042e+04 
       3.138221428637e-02       1.238046503962e+04 
       3.152903634759e-02       1.233257250082e+04 
       3.167627961729e-02       1.228456823112e+04 
       3.182395490715e-02       1.223659824727e+04 
       3.197207336295e-02       1.218856762392e+04 
       3.212064647749e-02       1.214057086814e+04 
       3.226968610408e-02       1.209244639437e+04 
       3.241920447063e-02       1.204435608459e+04 
       3.256921419460e-02       1.199624868686e+04 
       3.271972829850e-02       1.194812359573e+04 
       3.287076022630e-02       1.189999452039e+04 
       3.302232386063e-02       1.185183633187e+04 
       3.317443354083e-02       1.180372115457e+04 
       3.332710408200e-02       1.175555213505e+04 
       3.348035079497e-02       1.170741950958e+04 
       3.363418950737e-02       1.165922661699e+04 
       3.378863658582e-02       1.161109173519e+04 
       3.394370895932e-02       1.156296741648e+04 
       3.409942414388e-02       1.151484200926e+04 
       3.425580026854e-02       1.146671047069e+04 
       3.441285610282e-02       1.141861288019e+04 
       3.457061108573e-02       1.137050013340e+04 
       3.472908535644e-02       1.132242550980e+04 
       3.488829978667e-02       1.127435603860e+04 
       3.504827601500e-02       1.122630660785e+04 
       3.520903648322e-02       1.117826388894e+04 
       3.537060447479e-02       1.113027609522e+04 
       3.553300415566e-02       1.108229029882e+04 
       3.569626061755e-02       1.103431201057e+04 
       3.586039992397e-02       1.098638336541e+04 
       3.602544915899e-02       1.093846021831e+04 
       3.619143647923e-02       1.089056446986e+04 
       3.635839116907e-02       1.084269635240e+04 
       3.652634369951e-02       1.079486364539e+04 
       3.669532579088e-02       1.074702856211e+04 
       3.686537047965e-02       1.069924647197e+04 
       3.703651218988e-02       1.065146884670e+04 
       3.720878680940e-02       1.060376383343e+04 
       3.738223177137e-02       1.055601037206e+04 
       3.755688614147e-02       1.050831965434e+04 
       3.773279071136e-02       1.046065711261e+04 
       3.790998809882e-02       1.041299603037e+04 
       3.808852285524e-02       1.036535033201e+04 
       3.826844158104e-02       1.031779520168e+04 
       3.844979304980e-02       1.027018084524e+04 
       3.863262834179e-02       1.022260474557e+04 
       3.881700098796e-02       1.017504859807e+04 
       3.900296712507e-02       1.012752760152e+04 
       3.919058566332e-02       1.007997479597e+04 
       3.937991846750e-02       1.003246415335e+04 
       3.957103055301e-02       9.984948202359e+03 
       3.976399029830e-02       9.937460325221e+03 
       3.995886967532e-02       9.889928783648e+03 
       4.015574449984e-02       9.842418302981e+03 
       4.035469470369e-02       9.794935122827e+03 
       4.055580463131e-02       9.747418050400e+03 
       4.075916336323e-02       9.699883116208e+03 
       4.096486506923e-02       9.652328418066e+03 
       4.117300939486e-02       9.604715977066e+03 
       4.138370188468e-02       9.557167740475e+03 
       4.159705444687e-02       9.509539405226e+03 
       4.181318586372e-02       9.461907113489e+03 
       4.203222235370e-02       9.414169296308e+03 
       4.225429819140e-02       9.366408256998e+03 
       4.247955639239e-02       9.318616343071e+03 
       4.270814947137e-02       9.270750416279e+03 
       4.294024028303e-02       9.222826300259e+03 
       4.317600295646e-02       9.174787805386e+03 
       4.341562393582e-02       9.126691933121e+03 
       4.365930314168e-02       9.078502461083e+03 
       4.390725527012e-02       9.030176248051e+03 
       4.415971124918e-02       8.981783909095e+03 
       4.441691987572e-02       8.933221798903e+03 
       4.467914965963e-02       8.884548516525e+03 
       4.494669090716e-02       8.835696567189e+03 
       4.521985808069e-02       8.786645622102e+03 
       4.549899247916e-02       8.737528280768e+03 
       4.578446529176e-02       8.688091853589e+03 
       4.607668108742e-02       8.638478564300e+03 
       4.637608181500e-02       8.588640900511e+03 
       4.668315140420e-02       8.538539694544e+03 
       4.699842107548e-02       8.488118099232e+03 
       4.732247549037e-02       8.437447217802e+03 
       4.765595990173e-02       8.386400043234e+03 
       4.799958849878e-02       8.334999132062e+03 
       4.835415418576e-02       8.283183135942e+03 
       4.872054008840e-02       8.230947322274e+03 
       4.909973315204e-02       8.178215066051e+03 
       4.949284028331e-02       8.124937701606e+03 
       4.990110759907e-02       8.071091659359e+03 
       5.032594348852e-02       8.016598187110e+03 
       5.076894637549e-02       7.961401950979e+03 
       5.123193829900e-02       7.905381817388e+03 
       5.171700572402e-02       7.848491003198e+03 
       5.222654936704e-02       7.790603156984e+03 
       5.276334528880e-02       7.731577296739e+03 
       5.333062008432e-02       7.671290252734e+03 
       5.393214369381e-02       7.609520733727e+03 
       5.457234414577e-02       7.546076254204e+03 
       5.525644934663e-02       7.480655280618e+03 
       5.599066164037e-02       7.412952840522e+03 
       5.678237081098e-02       7.342486576262e+03 
       5.764040951633e-02       7.268723885568e+03 
       5.857534990357e-02       7.190918714240e+03 
       5.959982777214e-02       7.108113035054e+03 
       6.072885486691e-02       7.019045574069e+03 
       6.198003104435e-02       6.921990824390e+03 
