# dimensionless total [l(l+1)/2pi] C_l's
# for l=2 to 3000, i.e. number of multipoles equal to 2999
#
# -> if you prefer output in CAMB/HealPix/LensPix units/order, set 'format' to 'camb' in input file
# -> if you don't want to see such a header, set 'headers' to 'no' in input file
# -> for CMB lensing (phi), these are C_l^phi-phi for the lensing potential.
#    Remember the conversion factors:
#    C_l^dd (deflection) = l(l+1) C_l^phi-phi
#    C_l^gg (shear/convergence) = 1/4 (l(l+1))^2 C_l^phi-phi
#
# 1:l     2:TT                     3:EE                     4:TE                     5:BB                     6:phiphi                 7:TPhi                   8:Ephi               
    2       1.591970063598e-10       7.397290003331e-15       4.547152078580e-13       0.000000000000e+00       8.171643285830e-09       5.236554456130e-10      -2.488595972589e-12 
    3       1.512958660166e-10       1.245443665803e-14       5.689447386214e-13       0.000000000000e+00       5.009556902108e-09       3.848285005553e-10      -2.182013102198e-12 
    4       1.422680771677e-10       1.432481809757e-14       5.900014804378e-13       0.000000000000e+00       3.478776871697e-09       2.982605930676e-10      -1.723656519543e-12 
    5       1.346808188592e-10       1.297879039242e-14       5.555776986195e-13       0.000000000000e+00       2.596302118689e-09       2.396215546522e-10      -1.258241679428e-12 
    6       1.288533923761e-10       9.773016214125e-15       4.923762710446e-13       0.000000000000e+00       2.028650374984e-09       1.974930157819e-10      -8.368009310244e-13 
    7       1.245458175031e-10       6.313888865160e-15       4.189089311195e-13       0.000000000000e+00       1.637431097715e-09       1.659250672851e-10      -4.849221636475e-13 
    8       1.215022054205e-10       3.668028081144e-15       3.465079996035e-13       0.000000000000e+00       1.353995327642e-09       1.415484442986e-10      -2.134079884405e-13 
    9       1.194919194018e-10       2.150149291389e-15       2.821472510511e-13       0.000000000000e+00       1.140635567445e-09       1.223114876643e-10      -2.288003465222e-14 
   10       1.182394849307e-10       1.524145594544e-15       2.299600283114e-13       0.000000000000e+00       9.752077410704e-10       1.068591676220e-10       9.359473548755e-14 
   11       1.176488118307e-10       1.355052997681e-15       1.916866419681e-13       0.000000000000e+00       8.238885438930e-10       9.455889335709e-11       1.475200322074e-13 
   12       1.175450603537e-10       1.290508526109e-15       1.671203771685e-13       0.000000000000e+00       7.202582440542e-10       8.394314204895e-11       1.549953174163e-13 
   13       1.177886975020e-10       1.174053865147e-15       1.547287202382e-13       0.000000000000e+00       6.351587059070e-10       7.522704462849e-11       1.311596512867e-13 
   14       1.183574026949e-10       1.011783316269e-15       1.520074522391e-13       0.000000000000e+00       5.643279361438e-10       6.766201018539e-11       8.955968811802e-14 
   15       1.191789780660e-10       8.745175503212e-16       1.560360088283e-13       0.000000000000e+00       5.046840988697e-10       6.129142087513e-11       4.279293882082e-14 
   16       1.201779376563e-10       8.139888890757e-16       1.640853313470e-13       0.000000000000e+00       4.539533538184e-10       5.584338019125e-11      -1.922102595745e-16 
   17       1.213674609256e-10       8.311518598265e-16       1.738128075378e-13       0.000000000000e+00       4.104179641750e-10       5.112231890118e-11      -3.359197817897e-14 
   18       1.226654130518e-10       8.883018538566e-16       1.834631493289e-13       0.000000000000e+00       3.726175250704e-10       4.695545325054e-11      -5.463587394296e-14 
   19       1.240839152859e-10       9.560834379858e-16       1.922610911907e-13       0.000000000000e+00       3.399549430925e-10       4.327373461481e-11      -6.328895290965e-14 
   20       1.256142985747e-10       1.010010562472e-15       1.996851395168e-13       0.000000000000e+00       3.111767887453e-10       3.995853749365e-11      -6.139868306555e-14 
   21       1.272480293314e-10       1.060772171104e-15       2.057897271969e-13       0.000000000000e+00       2.858339633879e-10       3.699448387107e-11      -5.174020004684e-14 
   22       1.289443217412e-10       1.132917983551e-15       2.109145927271e-13       0.000000000000e+00       2.633225363611e-10       3.434965306899e-11      -3.813675201904e-14 
   23       1.307127618274e-10       1.242291674016e-15       2.155257682854e-13       0.000000000000e+00       2.433351370727e-10       3.197616547681e-11      -2.359466549864e-14 
   24       1.325529199796e-10       1.399955093629e-15       2.201705145181e-13       0.000000000000e+00       2.254120017151e-10       2.979803268334e-11      -1.104806575954e-14 
   25       1.344504760813e-10       1.601720331029e-15       2.252067223278e-13       0.000000000000e+00       2.093437100104e-10       2.781803123694e-11      -2.044191188430e-15 
   26       1.363739047955e-10       1.837505765691e-15       2.308829148653e-13       0.000000000000e+00       1.948407341025e-10       2.604238913139e-11       2.496091981564e-15 
   27       1.383335953971e-10       2.103041155467e-15       2.371299310611e-13       0.000000000000e+00       1.817302041404e-10       2.444910598819e-11       2.796046453983e-15 
   28       1.403411582664e-10       2.395581667659e-15       2.437051231411e-13       0.000000000000e+00       1.697872686694e-10       2.299679347000e-11      -3.154971638980e-16 
   29       1.424011113769e-10       2.714928309080e-15       2.502563687700e-13       0.000000000000e+00       1.589516845930e-10       2.167497977665e-11      -5.761093339707e-15 
   30       1.445009119457e-10       3.061471115652e-15       2.563024318740e-13       0.000000000000e+00       1.491078693238e-10       2.046947144967e-11      -1.207089935459e-14 
   31       1.466176068813e-10       3.435068731770e-15       2.613037691728e-13       0.000000000000e+00       1.400559756831e-10       1.935526332120e-11      -1.762094419965e-14 
   32       1.487587340269e-10       3.833988973980e-15       2.649535749228e-13       0.000000000000e+00       1.317497820889e-10       1.832447316502e-11      -2.172360690617e-14 
   33       1.509341345453e-10       4.255491112334e-15       2.669886661564e-13       0.000000000000e+00       1.241310323163e-10       1.736671106644e-11      -2.393027554673e-14 
   34       1.531464192223e-10       4.697512166118e-15       2.671698844978e-13       0.000000000000e+00       1.170936713070e-10       1.646663601044e-11      -2.390566462008e-14 
   35       1.553989222146e-10       5.163760338727e-15       2.654825459386e-13       0.000000000000e+00       1.106019545674e-10       1.562428578977e-11      -2.197441322072e-14 
   36       1.576887207129e-10       5.660495973929e-15       2.620097389786e-13       0.000000000000e+00       1.046040398726e-10       1.484078801573e-11      -1.878296828584e-14 
   37       1.600078477103e-10       6.193957391036e-15       2.568706498210e-13       0.000000000000e+00       9.902217173213e-11       1.411376209521e-11      -1.506872432979e-14 
   38       1.623580805959e-10       6.765818997225e-15       2.501778825644e-13       0.000000000000e+00       9.384216536299e-11       1.344156603805e-11      -1.131367631781e-14 
   39       1.647397500144e-10       7.376261491206e-15       2.420708666882e-13       0.000000000000e+00       8.904784543884e-11       1.281975481394e-11      -7.990528802538e-15 
   40       1.671469731882e-10       8.025159692555e-15       2.327304491067e-13       0.000000000000e+00       8.459382557036e-11       1.223946469503e-11      -5.662298086533e-15 
   41       1.695712470859e-10       8.712230123150e-15       2.223186541871e-13       0.000000000000e+00       8.042137060321e-11       1.169038210494e-11      -4.815229916965e-15 
   42       1.720151519370e-10       9.437584571319e-15       2.107684884569e-13       0.000000000000e+00       7.651832355033e-11       1.117171111463e-11      -5.279396728967e-15 
   43       1.744820463622e-10       1.020131959502e-14       1.979298345230e-13       0.000000000000e+00       7.287439507622e-11       1.068414706689e-11      -6.628405698275e-15 
   44       1.769718935582e-10       1.100335221859e-14       1.836244099930e-13       0.000000000000e+00       6.946317439224e-11       1.022670069220e-11      -8.329069902115e-15 
   45       1.794830608595e-10       1.184355124456e-14       1.676697853791e-13       0.000000000000e+00       6.625158605896e-11       9.797306135553e-12      -9.846810513086e-15 
   46       1.820191636463e-10       1.272220245131e-14       1.499643952431e-13       0.000000000000e+00       6.323465729265e-11       9.395201194221e-12      -1.101489085031e-14 
   47       1.845836873681e-10       1.363966482273e-14       1.304247695739e-13       0.000000000000e+00       6.040896076485e-11       9.019013687408e-12      -1.176441549175e-14 
   48       1.871778124585e-10       1.459623877764e-14       1.089614926203e-13       0.000000000000e+00       5.776212822247e-11       8.665973085353e-12      -1.202184854780e-14 
   49       1.898001965721e-10       1.559216395462e-14       8.547882850233e-14       0.000000000000e+00       5.527218516482e-11       8.331809797066e-12      -1.170890475555e-14 
   50       1.924482798540e-10       1.662761316291e-14       5.990501204819e-14       0.000000000000e+00       5.291418493623e-11       8.012028414425e-12      -1.078736693224e-14 
   51       1.951231236459e-10       1.770267743870e-14       3.229368295324e-14       0.000000000000e+00       5.068377746282e-11       7.706368535068e-12      -9.408132582017e-15 
   52       1.978255087752e-10       1.881737310348e-14       2.749337623057e-15       0.000000000000e+00       4.857888793141e-11       7.415380692111e-12      -7.802436055537e-15 
   53       2.005543846904e-10       1.997164290460e-14      -2.859988630642e-14       0.000000000000e+00       4.659266233105e-11       7.139123025947e-12      -6.242415866387e-15 
   54       2.033067233698e-10       2.116535361965e-14      -6.160114128812e-14       0.000000000000e+00       4.471314563198e-11       6.877125228742e-12      -5.043119966959e-15 
   55       2.060792330496e-10       2.239834211218e-14      -9.611590119615e-14       0.000000000000e+00       4.292693641340e-11       6.628620366913e-12      -4.481780815278e-15 
   56       2.088743326266e-10       2.367057238488e-14      -1.321508581425e-13       0.000000000000e+00       4.123195117385e-11       6.393390387689e-12      -4.527563053770e-15 
   57       2.116954055351e-10       2.498201334566e-14      -1.697576713615e-13       0.000000000000e+00       3.962726725476e-11       6.171067500491e-12      -5.048191750324e-15 
   58       2.145449979349e-10       2.633259327782e-14      -2.089961991015e-13       0.000000000000e+00       3.810926094706e-11       5.960859640445e-12      -5.885609048636e-15 
   59       2.174247450804e-10       2.772219933216e-14      -2.499349922822e-13       0.000000000000e+00       3.667144059682e-11       5.761524849689e-12      -6.854756189206e-15 
   60       2.203352976901e-10       2.915067701906e-14      -2.926517881525e-13       0.000000000000e+00       3.530427971069e-11       5.571345658671e-12      -7.742355530337e-15 
   61       2.232768284031e-10       3.061775698610e-14      -3.372161757517e-13       0.000000000000e+00       3.399786674923e-11       5.388590731990e-12      -8.356464058177e-15 
   62       2.262508505611e-10       3.212281729403e-14      -3.836319287325e-13       0.000000000000e+00       3.275092709893e-11       5.213078850386e-12      -8.690886986728e-15 
   63       2.292586788710e-10       3.366506663695e-14      -4.318825456172e-13       0.000000000000e+00       3.156353923755e-11       5.044922118091e-12      -8.795675180934e-15 
   64       2.323008312114e-10       3.524360958898e-14      -4.819478651969e-13       0.000000000000e+00       3.043442075552e-11       4.884059718881e-12      -8.729995360511e-15 
   65       2.353769734076e-10       3.685744378915e-14      -5.338039945143e-13       0.000000000000e+00       2.936085083293e-11       4.730247757912e-12      -8.562523061903e-15 
   66       2.384858640072e-10       3.850545712636e-14      -5.874232368452e-13       0.000000000000e+00       2.833859271636e-11       4.583049103559e-12      -8.371835600229e-15 
   67       2.416252990549e-10       4.018642492428e-14      -6.427740196813e-13       0.000000000000e+00       2.736181619583e-11       4.441823229251e-12      -8.246805031236e-15 
   68       2.447930540242e-10       4.189913308122e-14      -6.998239811034e-13       0.000000000000e+00       2.642465699068e-11       4.305915755269e-12      -8.265938087907e-15 
   69       2.479900546845e-10       4.364278275639e-14      -7.585501160899e-13       0.000000000000e+00       2.552643510852e-11       4.175294378682e-12      -8.429656413349e-15 
   70       2.512177524791e-10       4.541666300335e-14      -8.189305661876e-13       0.000000000000e+00       2.466735945560e-11       4.050024143042e-12      -8.714937407745e-15 
   71       2.544771550279e-10       4.722003246942e-14      -8.809416516288e-13       0.000000000000e+00       2.384694946497e-11       3.930074179364e-12      -9.095010283885e-15 
   72       2.577687964054e-10       4.905211980198e-14      -9.445578800910e-13       0.000000000000e+00       2.306399943803e-11       3.815312655383e-12      -9.539210588569e-15 
   73       2.610927074187e-10       5.091212405472e-14      -1.009751955456e-12       0.000000000000e+00       2.231654288616e-11       3.705501724799e-12      -1.001283472401e-14 
   74       2.644483858850e-10       5.279921509394e-14      -1.076494786569e-12       0.000000000000e+00       2.160181687228e-11       3.600292476541e-12      -1.047699446925e-14 
   75       2.678347669102e-10       5.471253400483e-14      -1.144755496000e-12       0.000000000000e+00       2.091622635245e-11       3.499219884010e-12      -1.088847150156e-14 
   76       2.712507984344e-10       5.665103939479e-14      -1.214499239992e-12       0.000000000000e+00       2.025623759461e-11       3.401821665367e-12      -1.120909180273e-14 
   77       2.746973547397e-10       5.861301304807e-14      -1.285680189995e-12       0.000000000000e+00       1.962132534688e-11       3.308031052405e-12      -1.143614402153e-14 
   78       2.781756195019e-10       6.059646444419e-14      -1.358247281250e-12       0.000000000000e+00       1.901150081236e-11       3.217846801547e-12      -1.157726951220e-14 
   79       2.816864944478e-10       6.259927415450e-14      -1.432146252516e-12       0.000000000000e+00       1.842641391129e-11       3.131213167556e-12      -1.164148346984e-14 
   80       2.852305820442e-10       6.461919108843e-14      -1.507319609950e-12       0.000000000000e+00       1.786533667414e-11       3.048017393687e-12      -1.163922466481e-14 
   81       2.888081681875e-10       6.665382973978e-14      -1.583706590977e-12       0.000000000000e+00       1.732714663463e-11       2.968087201836e-12      -1.158240517703e-14 
   82       2.924192048931e-10       6.870066743300e-14      -1.661243128174e-12       0.000000000000e+00       1.681031022284e-11       2.891188282684e-12      -1.148446013035e-14 
   83       2.960632929851e-10       7.075704156949e-14      -1.739861813140e-12       0.000000000000e+00       1.631286615825e-11       2.817021785853e-12      -1.136039742695e-14 
   84       2.997399534260e-10       7.282040491299e-14      -1.819497224830e-12       0.000000000000e+00       1.583290264756e-11       2.745298455364e-12      -1.122389529982e-14 
   85       3.034495309089e-10       7.488914610379e-14      -1.900103008606e-12       0.000000000000e+00       1.537011625002e-11       2.675980654828e-12      -1.107793318129e-14 
   86       3.071924090206e-10       7.696190075207e-14      -1.981637575464e-12       0.000000000000e+00       1.492448219248e-11       2.609076049767e-12      -1.092269159488e-14 
   87       3.109687226429e-10       7.903730705249e-14      -2.064059042554e-12       0.000000000000e+00       1.449577535659e-11       2.544563325981e-12      -1.075836635567e-14 
   88       3.147783454938e-10       8.111400736728e-14      -2.147325287217e-12       0.000000000000e+00       1.408356197102e-11       2.482390967850e-12      -1.058516868818e-14 
   89       3.186208776676e-10       8.319064980932e-14      -2.231394001021e-12       0.000000000000e+00       1.368719130384e-11       2.422476036638e-12      -1.040332534421e-14 
   90       3.224956331759e-10       8.526588982517e-14      -2.316222743793e-12       0.000000000000e+00       1.330578735476e-11       2.364702948807e-12      -1.021307872072e-14 
   91       3.264016274873e-10       8.733839177819e-14      -2.401768997655e-12       0.000000000000e+00       1.293824054752e-11       2.308922254312e-12      -1.001468697766e-14 
   92       3.303375650689e-10       8.940683053159e-14      -2.487990221062e-12       0.000000000000e+00       1.258319942210e-11       2.254949414915e-12      -9.808424155862e-15 
   93       3.343022160066e-10       9.146977889459e-14      -2.574839141108e-12       0.000000000000e+00       1.223939152742e-11       2.202608906152e-12      -9.594785364074e-15 
   94       3.382956377255e-10       9.352534715851e-14      -2.662248703167e-12       0.000000000000e+00       1.190665935101e-11       2.151876764252e-12      -9.375137385323e-15 
   95       3.423181148352e-10       9.557149202155e-14      -2.750144947053e-12       0.000000000000e+00       1.158506555811e-11       2.102757319253e-12      -9.151166595025e-15 
   96       3.463697793983e-10       9.760612591127e-14      -2.838451555877e-12       0.000000000000e+00       1.127457393572e-11       2.055239190089e-12      -8.924685503999e-15 
   97       3.504506038120e-10       9.962711700087e-14      -2.927089844718e-12       0.000000000000e+00       1.097504560380e-11       2.009294685049e-12      -8.697635691268e-15 
   98       3.545603936889e-10       1.016322892256e-13      -3.015978749299e-12       0.000000000000e+00       1.068623522646e-11       1.964879202230e-12      -8.472090736873e-15 
   99       3.586987807393e-10       1.036194222989e-13      -3.105034814656e-12       0.000000000000e+00       1.040778722315e-11       1.921930629995e-12      -8.250259154677e-15 
  100       3.628652156517e-10       1.055862517291e-13      -3.194172183808e-12       0.000000000000e+00       1.013923197983e-11       1.880368747429e-12      -8.034487325170e-15 
  101       3.670589609746e-10       1.075304688354e-13      -3.283302586432e-12       0.000000000000e+00       9.879982060164e-12       1.840094624796e-12      -7.827262428283e-15 
  102       3.712790839979e-10       1.094497207642e-13      -3.372335327532e-12       0.000000000000e+00       9.629328416713e-12       1.800990023993e-12      -7.631215376187e-15 
  103       3.755244496342e-10       1.113416105056e-13      -3.461177276114e-12       0.000000000000e+00       9.386436602109e-12       1.762916799010e-12      -7.449123746109e-15 
  104       3.797939477597e-10       1.132038102974e-13      -3.549737499483e-12       0.000000000000e+00       9.150536038220e-12       1.725749526731e-12      -7.283286185933e-15 
  105       3.840872255456e-10       1.150344192470e-13      -3.637941903513e-12       0.000000000000e+00       8.921525102465e-12       1.689479710803e-12      -7.133543068911e-15 
  106       3.884040412435e-10       1.168316542744e-13      -3.725720558153e-12       0.000000000000e+00       8.699441096919e-12       1.654124601998e-12      -6.998992681115e-15 
  107       3.927440340725e-10       1.185937422857e-13      -3.813003267647e-12       0.000000000000e+00       8.484272842279e-12       1.619694993326e-12      -6.878591945772e-15 
