# Matter power spectrum P(k) at redshift z=0
# for k=1.0519e-05 to 1.71446 h/Mpc,
# number of wavenumbers equal to 606
#    1:k (h/Mpc)              2:P (Mpc/h)^3        
       1.051896119564e-05       5.100911562855e+01 
       2.339938498432e-05       1.100703400937e+02 
       3.632528700307e-05       1.680480221857e+02 
       4.933144318115e-05       2.255978136990e+02 
       6.245320623011e-05       2.830926549203e+02 
       7.572682084846e-05       3.408115699760e+02 
       8.918974902612e-05       3.989926983715e+02 
       1.028810097740e-04       4.578549705110e+02 
       1.168415376378e-04       5.176091173751e+02 
       1.311145643869e-04       5.784643079640e+02 
       1.457460282784e-04       6.406327037991e+02 
       1.607850152322e-04       7.043328906609e+02 
       1.762842360771e-04       7.697927939778e+02 
       1.923005436546e-04       8.372522437539e+02 
       2.088954929080e-04       9.069653804659e+02 
       2.261359460028e-04       9.792029994539e+02 
       2.440947228561e-04       1.054254796328e+03 
       2.628512949714e-04       1.132431632615e+03 
       2.824925169184e-04       1.214067694840e+03 
       3.031133848200e-04       1.299522591220e+03 
       3.248178044515e-04       1.389183275006e+03 
       3.477193425934e-04       1.483465709743e+03 
       3.719419237540e-04       1.582816095653e+03 
       3.976204200215e-04       1.687711562904e+03 
       4.249010646500e-04       1.798659969411e+03 
       4.539416005637e-04       1.916198653747e+03 
       4.849110546431e-04       2.040891641442e+03 
       5.179890099837e-04       2.173325026945e+03 
       5.533642354370e-04       2.314100052956e+03 
       5.912325304996e-04       2.463823464349e+03 
       6.317936614390e-04       2.623094824970e+03 
       6.752473093440e-04       2.792490563491e+03 
       7.217880290025e-04       2.972544895291e+03 
       7.715993308529e-04       3.163728068066e+03 
       8.248471399876e-04       3.366422863298e+03 
       8.816730380523e-04       3.580901011383e+03 
       9.421878259717e-04       3.807301218813e+03 
       1.006466020899e-03       4.045611494492e+03 
       1.074541886109e-03       4.295657439684e+03 
       1.146407470687e-03       4.557099021120e+03 
       1.222012916979e-03       4.829436092897e+03 
       1.301269017197e-03       5.112022630467e+03 
       1.384051724855e-03       5.404073424009e+03 
       1.470208110993e-03       5.704709776330e+03 
       1.559563139851e-03       6.013021401104e+03 
       1.651926634343e-03       6.328036317325e+03 
       1.747099890239e-03       6.648772090495e+03 
       1.844881543439e-03       6.974259409086e+03 
       1.945072457571e-03       7.303561125516e+03 
       2.047479547570e-03       7.635786548561e+03 
       2.151918570129e-03       7.970101633895e+03 
       2.258215987866e-03       8.305735020632e+03 
       2.366210053917e-03       8.641981911730e+03 
       2.475751275322e-03       8.978201497207e+03 
       2.586702406309e-03       9.313818674945e+03 
       2.698938104442e-03       9.648318261229e+03 
       2.812344359944e-03       9.981244553241e+03 
       2.926817785458e-03       1.031219140613e+04 
       3.042264832399e-03       1.064080886270e+04 
       3.158600982112e-03       1.096677458281e+04 
       3.275749945512e-03       1.128982912136e+04 
       3.393642893547e-03       1.160973191779e+04 
       3.512217732317e-03       1.192628110596e+04 
       3.631418430460e-03       1.223930020435e+04 
       3.751194402015e-03       1.254863966541e+04 
       3.871499944980e-03       1.285417131792e+04 
       3.992293733808e-03       1.315578567951e+04 
       4.113538362887e-03       1.345339487703e+04 
       4.235199937365e-03       1.374691949200e+04 
       4.357247707380e-03       1.403630047070e+04 
       4.479653741727e-03       1.432148683944e+04 
       4.602392637059e-03       1.460244149238e+04 
       4.725441258973e-03       1.487913358530e+04 
       4.848778511559e-03       1.515153954587e+04 
       4.972385132300e-03       1.541965588633e+04 
       5.096243509491e-03       1.568346762244e+04 
       5.220337519635e-03       1.594298072799e+04 
       5.344652382533e-03       1.619819565264e+04 
       5.469174532063e-03       1.644912548446e+04 
       5.593891500820e-03       1.669578811079e+04 
       5.718791817065e-03       1.693819194772e+04 
       5.843864912537e-03       1.717636414440e+04 
       5.969101039927e-03       1.741032909318e+04 
       6.094491198883e-03       1.764010406414e+04 
       6.220027069617e-03       1.786572696479e+04 
       6.345700953238e-03       1.808722183531e+04 
       6.471505718074e-03       1.830461610685e+04 
       6.597434751323e-03       1.851794742083e+04 
       6.723481915450e-03       1.872725448010e+04 
       6.849641508806e-03       1.893257316174e+04 
       6.975908230035e-03       1.913391456845e+04 
       7.102277145848e-03       1.933131924908e+04 
       7.228743661819e-03       1.952480250040e+04 
       7.355303495886e-03       1.971446934640e+04 
       7.481952654276e-03       1.990031532220e+04 
       7.608687409615e-03       2.008237856871e+04 
       7.735504280989e-03       2.026068248733e+04 
       7.862400015775e-03       2.043526900280e+04 
       7.989371573052e-03       2.060617849488e+04 
       8.116416108455e-03       2.077348296834e+04 
       8.243530960321e-03       2.093720885193e+04 
       8.370713637003e-03       2.109736861546e+04 
       8.497961805247e-03       2.125403058288e+04 
       8.625273279535e-03       2.140720499930e+04 
       8.752646012289e-03       2.155696968891e+04 
       8.880078084881e-03       2.170330823196e+04 
       9.007567699358e-03       2.184627769942e+04 
       9.135113170818e-03       2.198587084599e+04 
       9.262712920397e-03       2.212223285913e+04 
       9.390365468793e-03       2.225532462668e+04 
       9.518069430292e-03       2.238519735448e+04 
       9.645823507247e-03       2.251189145245e+04 
       9.773626484984e-03       2.263543281901e+04 
       9.901477227080e-03       2.275587056123e+04 
       1.002937467100e-02       2.287321755155e+04 
       1.015731782405e-02       2.298753030472e+04 
       1.028530575963e-02       2.309882870003e+04 
       1.041333761377e-02       2.320716383117e+04 
       1.054141258189e-02       2.331256489344e+04 
       1.066952991582e-02       2.341504612210e+04 
       1.079768892103e-02       2.351467487529e+04 
       1.092588895402e-02       2.361145471517e+04 
       1.105412941995e-02       2.370543538958e+04 
       1.118240977042e-02       2.379663868997e+04 
       1.131072950135e-02       2.388509947154e+04 
       1.143908815110e-02       2.397086235532e+04 
       1.156748529868e-02       2.405393322702e+04 
       1.169592056202e-02       2.413436454405e+04 
       1.182439359651e-02       2.421219111903e+04 
       1.195290409347e-02       2.428741467530e+04 
       1.208145177888e-02       2.436009397715e+04 
       1.221003641208e-02       2.443025285669e+04 
       1.233865778464e-02       2.449791202850e+04 
       1.246731571927e-02       2.456310363309e+04 
       1.259601006883e-02       2.462586356736e+04 
       1.272474071538e-02       2.468622070224e+04 
       1.285350756935e-02       2.474419750876e+04 
       1.298231056871e-02       2.479983764573e+04 
       1.311114967826e-02       2.485315187280e+04 
       1.324002488891e-02       2.490417487263e+04 
       1.336893621710e-02       2.495293416720e+04 
       1.349788370417e-02       2.499946125337e+04 
       1.362686741586e-02       2.504377856019e+04 
       1.375588744181e-02       2.508592060479e+04 
       1.388494389510e-02       2.512589309807e+04 
       1.401403691187e-02       2.516373833712e+04 
       1.414316665093e-02       2.519949779350e+04 
       1.427233329341e-02       2.523316382554e+04 
       1.440153704251e-02       2.526478484013e+04 
       1.453077812317e-02       2.529437555650e+04 
       1.466005678188e-02       2.532197186872e+04 
       1.478937328646e-02       2.534759531987e+04 
       1.491872792586e-02       2.537126688073e+04 
       1.504812101004e-02       2.539302731228e+04 
       1.517755286981e-02       2.541288167380e+04 
       1.530702385677e-02       2.543086532890e+04 
       1.543653434319e-02       2.544700289544e+04 
       1.556608472196e-02       2.546132257759e+04 
       1.569567540662e-02       2.547384764875e+04 
       1.582530683124e-02       2.548460677118e+04 
       1.595497945055e-02       2.549359620238e+04 
       1.608469373989e-02       2.550085201196e+04 
       1.621445019526e-02       2.550641006086e+04 
       1.634424933347e-02       2.551026700754e+04 
       1.647409169214e-02       2.551247338816e+04 
       1.660397782985e-02       2.551303332807e+04 
       1.673390832626e-02       2.551198528355e+04 
       1.686388378227e-02       2.550935367720e+04 
       1.699390482016e-02       2.550514019142e+04 
       1.712397208376e-02       2.549937042724e+04 
       1.725408623869e-02       2.549208528327e+04 
       1.738424797254e-02       2.548328822327e+04 
       1.751445799509e-02       2.547299748781e+04 
       1.764471703860e-02       2.546126588640e+04 
       1.777502585802e-02       2.544810216044e+04 
       1.790538523134e-02       2.543348301075e+04 
       1.803579595982e-02       2.541747949609e+04 
       1.816625886832e-02       2.540008727052e+04 
       1.829677480566e-02       2.538136493176e+04 
       1.842734464495e-02       2.536127588158e+04 
       1.855796928395e-02       2.533989566061e+04 
       1.868864964543e-02       2.531718992901e+04 
       1.881938667763e-02       2.529322313381e+04 
       1.895018135460e-02       2.526798562390e+04 
       1.908103467668e-02       2.524151851987e+04 
       1.921194767095e-02       2.521383455735e+04 
       1.934292139166e-02       2.518494354562e+04 
       1.947395692077e-02       2.515490490960e+04 
       1.960505536841e-02       2.512363661595e+04 
       1.973621787342e-02       2.509126572904e+04 
       1.986744560387e-02       2.505781078991e+04 
       1.999873975768e-02       2.502318107859e+04 
       2.013010156312e-02       2.498750234870e+04 
       2.026153227948e-02       2.495077070811e+04 
       2.039303319764e-02       2.491293681699e+04 
       2.052460564076e-02       2.487412139760e+04 
       2.065625096488e-02       2.483425260344e+04 
       2.078797055968e-02       2.479342885394e+04 
       2.091976584912e-02       2.475157712679e+04 
       2.105163829221e-02       2.470879249910e+04 
       2.118358938376e-02       2.466506052141e+04 
       2.131562065515e-02       2.462039546718e+04 
       2.144773367511e-02       2.457481935713e+04 
       2.157993005062e-02       2.452832750717e+04 
       2.171221142767e-02       2.448102111123e+04 
       2.184457949221e-02       2.443279403920e+04 
       2.197703597104e-02       2.438375435303e+04 
       2.210958263275e-02       2.433389028943e+04 
       2.224222128867e-02       2.428317436070e+04 
       2.237495379388e-02       2.423166948567e+04 
       2.250778204824e-02       2.417940769666e+04 
       2.264070799746e-02       2.412639717855e+04 
       2.277373363417e-02       2.407262576331e+04 
       2.290686099907e-02       2.401809497464e+04 
       2.304009218206e-02       2.396286236242e+04 
       2.317342932350e-02       2.390697432989e+04 
       2.330687461539e-02       2.385027805689e+04 
       2.344043030266e-02       2.379299295001e+04 
       2.357409868451e-02       2.373505626637e+04 
       2.370788211575e-02       2.367641580661e+04 
       2.384178300821e-02       2.361721276928e+04 
       2.397580383215e-02       2.355734629900e+04 
       2.410994711783e-02       2.349689357469e+04 
       2.424421545696e-02       2.343584332149e+04 
       2.437861150438e-02       2.337419485649e+04 
       2.451313797960e-02       2.331203319715e+04 
       2.464779766860e-02       2.324931567105e+04 
       2.478259342550e-02       2.318608953365e+04 
       2.491752817442e-02       2.312227932599e+04 
       2.505260491129e-02       2.305796293482e+04 
       2.518782670584e-02       2.299317634459e+04 
       2.532319670357e-02       2.292791572840e+04 
       2.545871812778e-02       2.286220015743e+04 
       2.559439428174e-02       2.279596393423e+04 
       2.573022855087e-02       2.272932133414e+04 
       2.586622440501e-02       2.266228030709e+04 
       2.600238540080e-02       2.259477269801e+04 
       2.613871518408e-02       2.252685038906e+04 
       2.627521749243e-02       2.245857330848e+04 
       2.641189615776e-02       2.238984116476e+04 
       2.654875510902e-02       2.232078040385e+04 
       2.668579837500e-02       2.225134027046e+04 
       2.682303008719e-02       2.218156726399e+04 
       2.696045448281e-02       2.211143801799e+04 
       2.709807590786e-02       2.204097302855e+04 
       2.723589882042e-02       2.197015271125e+04 
       2.737392779388e-02       2.189911433396e+04 
       2.751216752047e-02       2.182773902060e+04 
       2.765062281481e-02       2.175602295996e+04 
       2.778929861760e-02       2.168409112192e+04 
       2.792819999952e-02       2.161183198611e+04 
       2.806733216522e-02       2.153941345296e+04 
       2.820670045742e-02       2.146659590870e+04 
       2.834631036128e-02       2.139366193131e+04 
       2.848616750886e-02       2.132044840885e+04 
       2.862627768373e-02       2.124698647634e+04 
       2.876664682584e-02       2.117334330504e+04 
       2.890728103656e-02       2.109944628103e+04 
       2.904818658385e-02       2.102545031665e+04 
       2.918936990771e-02       2.095117508813e+04 
       2.933083762586e-02       2.087675242503e+04 
       2.947259653958e-02       2.080216061064e+04 
       2.961465363987e-02       2.072739759393e+04 
       2.975701611378e-02       2.065250791469e+04 
       2.989969135111e-02       2.057745222022e+04 
       3.004268695129e-02       2.050222643039e+04 
       3.018601073061e-02       2.042689567042e+04 
       3.032967072974e-02       2.035146829775e+04 
       3.047367522159e-02       2.027589951281e+04 
       3.061803271950e-02       2.020021913172e+04 
       3.076275198579e-02       2.012441857662e+04 
       3.090784204070e-02       2.004853450030e+04 
       3.105331217171e-02       1.997256443884e+04 
       3.119917194330e-02       1.989648362198e+04 
       3.134543120716e-02       1.982038206487e+04 
       3.149210011282e-02       1.974413142410e+04 
       3.163918911887e-02       1.966787022994e+04 
       3.178670900459e-02       1.959149785538e+04 
       3.193467088222e-02       1.951511406188e+04 
       3.208308620977e-02       1.943870021276e+04 
       3.223196680445e-02       1.936214832611e+04 
       3.238132485680e-02       1.928564198871e+04 
       3.253117294543e-02       1.920907655784e+04 
       3.268152405256e-02       1.913254693318e+04 
       3.283239158033e-02       1.905586560390e+04 
       3.298378936791e-02       1.897925282945e+04 
       3.313573170948e-02       1.890256337290e+04 
       3.328823337321e-02       1.882591286484e+04 
       3.344130962110e-02       1.874922235604e+04 
       3.359497623002e-02       1.867252141832e+04 
       3.374924951374e-02       1.859588353075e+04 
       3.390414634623e-02       1.851918315092e+04 
       3.405968418619e-02       1.844251284379e+04 
       3.421588110293e-02       1.836585428846e+04 
       3.437275580372e-02       1.828920937826e+04 
       3.453032766263e-02       1.821258063859e+04 
       3.468861675106e-02       1.813588306242e+04 
       3.484764386999e-02       1.805932301970e+04 
       3.500743058411e-02       1.798279070380e+04 
       3.516799925798e-02       1.790622105315e+04 
       3.532937309432e-02       1.782969678092e+04 
       3.549157617464e-02       1.775316656169e+04 
       3.565463350225e-02       1.767669658865e+04 
       3.581857104807e-02       1.760024763392e+04 
       3.598341579918e-02       1.752385277958e+04 
       3.614919581048e-02       1.744750249355e+04 
       3.631594025967e-02       1.737115190202e+04 
       3.648367950574e-02       1.729484396373e+04 
       3.665244515137e-02       1.721856519765e+04 
       3.682227010941e-02       1.714234514856e+04 
       3.699318867385e-02       1.706614353303e+04 
       3.716523659568e-02       1.698996447006e+04 
       3.733845116391e-02       1.691383763328e+04 
       3.751287129233e-02       1.683775757878e+04 
       3.768853761237e-02       1.676166606143e+04 
       3.786549257271e-02       1.668560965263e+04 
       3.804378054612e-02       1.660963608507e+04 
       3.822344794420e-02       1.653364265076e+04 
       3.840454334072e-02       1.645767710989e+04 
       3.858711760444e-02       1.638178274657e+04 
       3.877122404208e-02       1.630585429395e+04 
       3.895691855261e-02       1.622999636104e+04 
       3.914425979374e-02       1.615413970400e+04 
       3.933330936192e-02       1.607822032280e+04 
       3.952413198712e-02       1.600239181341e+04 
       3.971679574387e-02       1.592656675269e+04 
       3.991137228014e-02       1.585071222458e+04 
       4.010793706600e-02       1.577485088317e+04 
       4.030656966402e-02       1.569898857662e+04 
       4.050735402372e-02       1.562308334182e+04 
       4.071037880276e-02       1.554717007297e+04 
       4.091573771768e-02       1.547131180156e+04 
       4.112352992747e-02       1.539528414276e+04 
       4.133386045383e-02       1.531917303802e+04 
       4.154684064223e-02       1.524316943086e+04 
       4.176258866852e-02       1.516704269880e+04 
       4.198123009676e-02       1.509081643477e+04 
       4.220289849418e-02       1.501453315290e+04 
       4.242773611067e-02       1.493816634834e+04 
       4.265589463075e-02       1.486168428717e+04 
       4.288753600753e-02       1.478510294530e+04 
       4.312283338926e-02       1.470837239677e+04 
       4.336197215113e-02       1.463151695488e+04 
       4.360515104654e-02       1.455449406265e+04 
       4.385258349470e-02       1.447729321920e+04 
       4.410449902390e-02       1.439996521758e+04 
       4.436114489339e-02       1.432241053380e+04 
       4.462278792032e-02       1.424452407104e+04 
       4.488971654313e-02       1.416644578341e+04 
       4.516224315828e-02       1.408812249072e+04 
       4.544070677409e-02       1.400949327319e+04 
       4.572547603333e-02       1.393053641322e+04 
       4.601695266651e-02       1.385123824580e+04 
       4.631557544962e-02       1.377154760093e+04 
       4.662182475515e-02       1.369143723821e+04 
       4.693622780308e-02       1.361090364016e+04 
       4.725936474140e-02       1.352982200083e+04 
       4.759187571332e-02       1.344826624520e+04 
       4.793446910302e-02       1.336604509630e+04 
       4.828793119520e-02       1.328322306393e+04 
       4.865313753799e-02       1.319969014397e+04 
       4.903106636717e-02       1.311539691082e+04 
       4.942281453630e-02       1.303023140626e+04 
       4.982961650725e-02       1.294413295107e+04 
       5.025286709492e-02       1.285701464274e+04 
       5.069414883821e-02       1.276875206321e+04 
       5.115526509606e-02       1.267920152351e+04 
       5.163828025586e-02       1.258823453592e+04 
       5.214556880816e-02       1.249569466983e+04 
       5.267987550105e-02       1.240132465903e+04 
       5.324438935741e-02       1.230495919942e+04 
       5.384283502252e-02       1.220625390353e+04 
       5.447958569187e-02       1.210487947968e+04 
       5.515980267493e-02       1.200037754925e+04 
       5.588960728448e-02       1.189221123587e+04 
       5.667629076149e-02       1.177972043031e+04 
       5.752856642771e-02       1.166195160110e+04 
       5.845686337060e-02       1.153780580950e+04 
       5.947364926827e-02       1.140582029518e+04 
       6.059374543126e-02       1.126389924188e+04 
       6.183455036091e-02       1.110940542672e+04 
