# Matter power spectrum P(k) at redshift z=0
# for k=1.0537e-05 to 1.71449 h/Mpc,
# number of wavenumbers equal to 606
#    1:k (h/Mpc)              2:P (Mpc/h)^3        
       1.053701567815e-05       5.063577270140e+01 
       2.341747907037e-05       1.091674005185e+02 
       3.634346922131e-05       1.666301254494e+02 
       4.934976265181e-05       2.236748615648e+02 
       6.247171310218e-05       2.806728551349e+02 
       7.574556674794e-05       3.379023785641e+02 
       8.920878752156e-05       3.956012399301e+02 
       1.029003968653e-04       4.539882004947e+02 
       1.168613322742e-04       5.132739278384e+02 
       1.311348290212e-04       5.736675238859e+02 
       1.457668294623e-04       6.353810398735e+02 
       1.608064242596e-04       6.986328523343e+02 
       1.763063296809e-04       7.636505140634e+02 
       1.923234047617e-04       8.306732953782e+02 
       2.089192114564e-04       8.999544699315e+02 
       2.261606198226e-04       9.717636252645e+02 
       2.441204586133e-04       1.046388791195e+03 
       2.628782091697e-04       1.124138603054e+03 
       2.825207369475e-04       1.205344359006e+03 
       3.031430500315e-04       1.290361958165e+03 
       3.248490672321e-04       1.379573702241e+03 
       3.477523693910e-04       1.473389805402e+03 
       3.719768959940e-04       1.572249468935e+03 
       3.976575348294e-04       1.676621460892e+03 
       4.249405352679e-04       1.787003796836e+03 
       4.539836563243e-04       1.903922439252e+03 
       4.849559403316e-04       2.027928522650e+03 
       5.180369843996e-04       2.159593858009e+03 
       5.534155689521e-04       2.299504260105e+03 
       5.912875014216e-04       2.448250264001e+03 
       6.318525510300e-04       2.606414987337e+03 
       6.753103954297e-04       2.774558861847e+03 
       7.218555782423e-04       2.953201339116e+03 
       7.716715899222e-04       3.142799961070e+03 
       8.249243261369e-04       3.343727723166e+03 
       8.817553297132e-04       3.556250135118e+03 
       9.422753542355e-04       3.780503803758e+03 
       1.006558862743e-03       4.016478891302e+03 
       1.074640060148e-03       4.264007428000e+03 
       1.146510935986e-03       4.522759418584e+03 
       1.222121575104e-03       4.792248139538e+03 
       1.301382717273e-03       5.071843185840e+03 
       1.384170271047e-03       5.360776442774e+03 
       1.470331271590e-03       5.658187075721e+03 
       1.559690657047e-03       5.963182152304e+03 
       1.652058233870e-03       6.274806531051e+03 
       1.747235290197e-03       6.592093544579e+03 
       1.845020461877e-03       6.914088325588e+03 
       1.945214618596e-03       7.239866714041e+03 
       2.047624685973e-03       7.568549544640e+03 
       2.152066434613e-03       7.899312926436e+03 
       2.258366343081e-03       8.231394231409e+03 
       2.366362681504e-03       8.564096174678e+03 
       2.475905974205e-03       8.896784736970e+03 
       2.586858992417e-03       9.228890161846e+03 
       2.699096410042e-03       9.559902057212e+03 
       2.812504232728e-03       9.889368683407e+03 
       2.926979087481e-03       1.021688722073e+04 
       3.042427438953e-03       1.054211096532e+04 
       3.158764780588e-03       1.086471957321e+04 
       3.275914834298e-03       1.118445568595e+04 
       3.393808780976e-03       1.150108042780e+04 
       3.512384535685e-03       1.181439327833e+04 
       3.631586075123e-03       1.212421884818e+04 
       3.751362820561e-03       1.243040856121e+04 
       3.871669076478e-03       1.273283270642e+04 
       3.992463523137e-03       1.303138901454e+04 
       4.113708760126e-03       1.332598335947e+04 
       4.235370897252e-03       1.361653885884e+04 
       4.357419188827e-03       1.390299664707e+04 
       4.479825707389e-03       1.418530592701e+04 
       4.602565052948e-03       1.446342955539e+04 
       4.725614094115e-03       1.473733664332e+04 
       4.848951737692e-03       1.500700327440e+04 
       4.972558723600e-03       1.527242640276e+04 
       5.096417442332e-03       1.553359019327e+04 
       5.220511772371e-03       1.579049979993e+04 
       5.344826935311e-03       1.604315906344e+04 
       5.469349366647e-03       1.629157908801e+04 
       5.594066600443e-03       1.653577117643e+04 
       5.718967166286e-03       1.677575132335e+04 
       5.844040497126e-03       1.701154366855e+04 
       5.969276846750e-03       1.724317211954e+04 
       6.094667215806e-03       1.747065337746e+04 
       6.220203285417e-03       1.769402538455e+04 
       6.345877357525e-03       1.791331195567e+04 
       6.471682301217e-03       1.812853918688e+04 
       6.597611504390e-03       1.833974501378e+04 
       6.723658830143e-03       1.854696733837e+04 
       6.849818577417e-03       1.875024130633e+04 
       6.976085445392e-03       1.894957933268e+04 
       7.102454501275e-03       1.914502147534e+04 
       7.228921151095e-03       1.933658148960e+04 
       7.355481113210e-03       1.952436119395e+04 
       7.482130394239e-03       1.970836019754e+04 
       7.608865267165e-03       1.988861453040e+04 
       7.735682251408e-03       2.006514715938e+04 
       7.862578094650e-03       2.023800023355e+04 
       7.989549756259e-03       2.040721112983e+04 
       8.116594392136e-03       2.057285673263e+04 
       8.243709340864e-03       2.073495605795e+04 
       8.370892111025e-03       2.089352648439e+04 
       8.498140369582e-03       2.104863392155e+04 
       8.625451931215e-03       2.120028851629e+04 
       8.752824748535e-03       2.134856830876e+04 
       8.880256903088e-03       2.149345415802e+04 
       9.007746597084e-03       2.163500542036e+04 
       9.135292145775e-03       2.177321384153e+04 
       9.262891970443e-03       2.190822345711e+04 
       9.390544591919e-03       2.203999547808e+04 
       9.518248624615e-03       2.216857946566e+04 
       9.646002771008e-03       2.229401713493e+04 
       9.773805816535e-03       2.241633321369e+04 
       9.901656624879e-03       2.253557665274e+04 
       1.002955413361e-02       2.265176023161e+04 
       1.015749735012e-02       2.276493914547e+04 
       1.028548534791e-02       2.287513327593e+04 
       1.041351726308e-02       2.298239325124e+04 
       1.054159229115e-02       2.308674897359e+04 
       1.066970968402e-02       2.318821353060e+04 
       1.079786874723e-02       2.328685448649e+04 
       1.092606883735e-02       2.338266856573e+04 
       1.105430935961e-02       2.347572217617e+04 
       1.118258976567e-02       2.356602027117e+04 
       1.131090955151e-02       2.365360350502e+04 
       1.143926825557e-02       2.373851463955e+04 
       1.156766545688e-02       2.382076164847e+04 
       1.169610077345e-02       2.390039326604e+04 
       1.182457386070e-02       2.397744661501e+04 
       1.195308441002e-02       2.405192255736e+04 
       1.208163214742e-02       2.412387976942e+04 
       1.221021683231e-02       2.419334046181e+04 
       1.233883825628e-02       2.426032968011e+04 
       1.246749624209e-02       2.432487218623e+04 
       1.259619064265e-02       2.438700479247e+04 
       1.272492134006e-02       2.444676081992e+04 
       1.285368824478e-02       2.450415707116e+04 
       1.298249129482e-02       2.455924609029e+04 
       1.311133045501e-02       2.461202619685e+04 
       1.324020571632e-02       2.466254067180e+04 
       1.336911709520e-02       2.471081567516e+04 
       1.349806463305e-02       2.475688084681e+04 
       1.362704839562e-02       2.480075148245e+04 
       1.375606847259e-02       2.484246764977e+04 
       1.388512497708e-02       2.488205082524e+04 
       1.401421804525e-02       2.491951364205e+04 
       1.414334783595e-02       2.495490354251e+04 
       1.427251453034e-02       2.498823816391e+04 
       1.440171833165e-02       2.501954087867e+04 
       1.453095946485e-02       2.504883260471e+04 
       1.466023817647e-02       2.507615035497e+04 
       1.478955473434e-02       2.510151458870e+04 
       1.491890942746e-02       2.512494914069e+04 
       1.504830256580e-02       2.514648542855e+04 
       1.517773448022e-02       2.516613683511e+04 
       1.530720552233e-02       2.518393597434e+04 
       1.543671606443e-02       2.519990721911e+04 
       1.556626649946e-02       2.521407848778e+04 
       1.569585724096e-02       2.522647311157e+04 
       1.582548872306e-02       2.523711542693e+04 
       1.595516140049e-02       2.524601200314e+04 
       1.608487574863e-02       2.525318887465e+04 
       1.621463226352e-02       2.525868433419e+04 
       1.634443146199e-02       2.526249511398e+04 
       1.647427388168e-02       2.526467070987e+04 
       1.660416008121e-02       2.526521875606e+04 
       1.673409064027e-02       2.526417362211e+04 
       1.686406615979e-02       2.526155896304e+04 
       1.699408726208e-02       2.525738030890e+04 
       1.712415459099e-02       2.525165860691e+04 
       1.725426881219e-02       2.524443955449e+04 
       1.738443061328e-02       2.523571982862e+04 
       1.751464070409e-02       2.522552629732e+04 
       1.764489981689e-02       2.521390254417e+04 
       1.777520870669e-02       2.520085066514e+04 
       1.790556815150e-02       2.518637354491e+04 
       1.803597895259e-02       2.517051570826e+04 
       1.816644193489e-02       2.515328701537e+04 
       1.829695794724e-02       2.513474070499e+04 
       1.842752786278e-02       2.511484091689e+04 
       1.855815257930e-02       2.509365913699e+04 
       1.868883301962e-02       2.507117147720e+04 
       1.881957013200e-02       2.504742089831e+04 
       1.895036489053e-02       2.502243455711e+04 
       1.908121829561e-02       2.499622409349e+04 
       1.921213137432e-02       2.496879873972e+04 
       1.934310518099e-02       2.494017154625e+04 
       1.947414079759e-02       2.491041512501e+04 
       1.960523933429e-02       2.487946184216e+04 
       1.973640192998e-02       2.484740180354e+04 
       1.986762975278e-02       2.481425737701e+04 
       1.999892400063e-02       2.477996115474e+04 
       2.013028590186e-02       2.474462853972e+04 
       2.026171671580e-02       2.470824119597e+04 
       2.039321773337e-02       2.467077733748e+04 
       2.052479027778e-02       2.463233854599e+04 
       2.065643570512e-02       2.459285570349e+04 
       2.078815540510e-02       2.455239813777e+04 
       2.091995080176e-02       2.451097476755e+04 
       2.105182335413e-02       2.446860263184e+04 
       2.118377455709e-02       2.442528906180e+04 
       2.131580594205e-02       2.438105472413e+04 
       2.144791907783e-02       2.433591740535e+04 
       2.158011557142e-02       2.428987276411e+04 
       2.171239706890e-02       2.424299954560e+04 
       2.184476525626e-02       2.419526206521e+04 
       2.197722186037e-02       2.414669325895e+04 
       2.210976864986e-02       2.409730670777e+04 
       2.224240743613e-02       2.404706173881e+04 
       2.237514007433e-02       2.399610670299e+04 
       2.250796846438e-02       2.394432085609e+04 
       2.264089455205e-02       2.389182271573e+04 
       2.277392033004e-02       2.383858927353e+04 
       2.290704783911e-02       2.378457142944e+04 
       2.304027916925e-02       2.372986842579e+04 
       2.317361646087e-02       2.367437678582e+04 
       2.330706190604e-02       2.361837465702e+04 
       2.344061774980e-02       2.356164043833e+04 
       2.357428629139e-02       2.350426963770e+04 
       2.370806988572e-02       2.344622601932e+04 
       2.384197094468e-02       2.338756170075e+04 
       2.397599193865e-02       2.332830029108e+04 
       2.411013539794e-02       2.326840743488e+04 
       2.424440391437e-02       2.320795234120e+04 
       2.437880014284e-02       2.314691687353e+04 
       2.451332680299e-02       2.308533172587e+04 
       2.464798668087e-02       2.302322253575e+04 
       2.478278263070e-02       2.296056766364e+04 
       2.491771757670e-02       2.289741992633e+04 
       2.505279451491e-02       2.283372660075e+04 
       2.518801651516e-02       2.276956718577e+04 
       2.532338672305e-02       2.270493920072e+04 
       2.545890836201e-02       2.263986540720e+04 
       2.559458473540e-02       2.257428718991e+04 
       2.573041922877e-02       2.250826740166e+04 
       2.586641531209e-02       2.244187663145e+04 
       2.600257654210e-02       2.237502397530e+04 
       2.613890656478e-02       2.230776067526e+04 
       2.627540911783e-02       2.224014574096e+04 
       2.641208803332e-02       2.217207895801e+04 
       2.654894724032e-02       2.210368808611e+04 
       2.668599076775e-02       2.203493173308e+04 
       2.682322274727e-02       2.196582071968e+04 
       2.696064741624e-02       2.189637091402e+04 
       2.709826912082e-02       2.182659301025e+04 
       2.723609231923e-02       2.175647761256e+04 
       2.737412158505e-02       2.168607367044e+04 
       2.751236161067e-02       2.161542750718e+04 
       2.765081721087e-02       2.154441320687e+04 
       2.778949332655e-02       2.147315494091e+04 
       2.792839502857e-02       2.140163367933e+04 
       2.806752752176e-02       2.132989766426e+04 
       2.820689614905e-02       2.125782642180e+04 
       2.834650639580e-02       2.118556320832e+04 
       2.848636389426e-02       2.111306039088e+04 
       2.862647442825e-02       2.104031096791e+04 
       2.876684393792e-02       2.096738145701e+04 
       2.890747852488e-02       2.089420113479e+04 
       2.904838445731e-02       2.082092367688e+04 
       2.918956817548e-02       2.074736946843e+04 
       2.933103629735e-02       2.067366656778e+04 
       2.947279562446e-02       2.059980532451e+04 
       2.961485314808e-02       2.052576585441e+04 
       2.975721605556e-02       2.045160403615e+04 
       2.989989173697e-02       2.037727603675e+04 
       3.004288779203e-02       2.030278765385e+04 
       3.018621203735e-02       2.022818106946e+04 
       3.032987251393e-02       2.015349388859e+04 
       3.047387749500e-02       2.007865124165e+04 
       3.061823549425e-02       2.000369962698e+04 
       3.076295527435e-02       1.992864402281e+04 
       3.090804585591e-02       1.985352919522e+04 
       3.105351652679e-02       1.977826319009e+04 
       3.119937685187e-02       1.970292440179e+04 
       3.134563668324e-02       1.962755883987e+04 
       3.149230617088e-02       1.955203151061e+04 
       3.163939577379e-02       1.947652833345e+04 
       3.178691627173e-02       1.940090022019e+04 
       3.193487877741e-02       1.932533889661e+04 
       3.208329474933e-02       1.924958722558e+04 
       3.223217600522e-02       1.917381575630e+04 
       3.238153473615e-02       1.909801050949e+04 
       3.253138352129e-02       1.902217518212e+04 
       3.268173534343e-02       1.894637931396e+04 
       3.283260360532e-02       1.887047510644e+04 
       3.298400214674e-02       1.879460022705e+04 
       3.313594526255e-02       1.871865547226e+04 
       3.328844772156e-02       1.864276525982e+04 
       3.344152478651e-02       1.856680373820e+04 
       3.359519223499e-02       1.849084403121e+04 
       3.374946638155e-02       1.841495969554e+04 
       3.390436410096e-02       1.833893652573e+04 
       3.405990285275e-02       1.826307128429e+04 
       3.421610070712e-02       1.818717161378e+04 
       3.437297637224e-02       1.811127579404e+04 
       3.453054922314e-02       1.803535102087e+04 
       3.468883933223e-02       1.795941893887e+04 
       3.484786750152e-02       1.788361023355e+04 
       3.500765529682e-02       1.780782663721e+04 
       3.516822508381e-02       1.773196605039e+04 
       3.532960006645e-02       1.765619971232e+04 
       3.549180432747e-02       1.758042781946e+04 
       3.565486287154e-02       1.750469694039e+04 
       3.581880167095e-02       1.742902291161e+04 
       3.598364771425e-02       1.735335346380e+04 
       3.614942905788e-02       1.727773781206e+04 
       3.631617488114e-02       1.720212757980e+04 
       3.648391554474e-02       1.712655356898e+04 
       3.665268265314e-02       1.705100950999e+04 
       3.682250912106e-02       1.697553965733e+04 
       3.699342924452e-02       1.690006749081e+04 
       3.716547877657e-02       1.682464170561e+04 
       3.733869500847e-02       1.674925407867e+04 
       3.751311685632e-02       1.667391703189e+04 
       3.768878495405e-02       1.659856181554e+04 
       3.786574175297e-02       1.652324627269e+04 
       3.804403162861e-02       1.644797277839e+04 
       3.822370099551e-02       1.637276346742e+04 
       3.840479843058e-02       1.629753250707e+04 
       3.858737480589e-02       1.622237229582e+04 
       3.877148343170e-02       1.614718095345e+04 
       3.895718021072e-02       1.607206677185e+04 
       3.914452380464e-02       1.599694137036e+04 
       3.933357581418e-02       1.592178971922e+04 
       3.952440097386e-02       1.584666808075e+04 
       3.971706736304e-02       1.577157964255e+04 
       3.991164663488e-02       1.569646137051e+04 
       4.010821426501e-02       1.562134072425e+04 
       4.030684982191e-02       1.554621492094e+04 
       4.050763726150e-02       1.547106701756e+04 
       4.071066524829e-02       1.539587026415e+04 
       4.091602750616e-02       1.532075000114e+04 
       4.112382320202e-02       1.524546169259e+04 
       4.133415736613e-02       1.517015434140e+04 
       4.154714135314e-02       1.509482462508e+04 
       4.176289334891e-02       1.501943732291e+04 
       4.198153892824e-02       1.494395052917e+04 
       4.220321167008e-02       1.486841219883e+04 
       4.242805383698e-02       1.479278840642e+04 
       4.265621712730e-02       1.471705153204e+04 
       4.288786350915e-02       1.464121012081e+04 
       4.312316614720e-02       1.456522094129e+04 
       4.336231043457e-02       1.448913022892e+04 
       4.360549514431e-02       1.441287345577e+04 
       4.385293371715e-02       1.433641619269e+04 
       4.410485570510e-02       1.425980521529e+04 
       4.436150839352e-02       1.418300661960e+04 
       4.462315862838e-02       1.410588472385e+04 
       4.489009488001e-02       1.402856386831e+04 
       4.516262958029e-02       1.395100916147e+04 
       4.544110177689e-02       1.387313735833e+04 
       4.572588015648e-02       1.379494745251e+04 
       4.601736649864e-02       1.371641412791e+04 
       4.631599963438e-02       1.363751016517e+04 
       4.662225999805e-02       1.355816885993e+04 
       4.693667487942e-02       1.347841966709e+04 
       4.725982450544e-02       1.339812521480e+04 
       4.759234910899e-02       1.331735677919e+04 
       4.793495717640e-02       1.323593562088e+04 
       4.828843510922e-02       1.315392168148e+04 
       4.865365858970e-02       1.307120138110e+04 
       4.903160600822e-02       1.298772466575e+04 
       4.942337439731e-02       1.290338609218e+04 
       4.983019842691e-02       1.281812183520e+04 
       5.025347315488e-02       1.273185049543e+04 
       5.069478140528e-02       1.264444277551e+04 
       5.115592687322e-02       1.255576026354e+04 
       5.163897434446e-02       1.246564610544e+04 
       5.214629878397e-02       1.237400646232e+04 
       5.268064550766e-02       1.228057914982e+04 
       5.324520422136e-02       1.218514855481e+04 
       5.384370039549e-02       1.208739598967e+04 
       5.448050822658e-02       1.198700721823e+04 
       5.516079024226e-02       1.188351418115e+04 
       5.589066924008e-02       1.177640489411e+04 
       5.667743826930e-02       1.166497905402e+04 
       5.752981284401e-02       1.154836005033e+04 
       5.845822468147e-02       1.142542960471e+04 
       5.947514454983e-02       1.129469195292e+04 
       6.059539725453e-02       1.115414093312e+04 
       6.183638497648e-02       1.100113501971e+04 
