# dimensionless total lensed [l(l+1)/2pi] C_l's
# for l=2 to 2500, i.e. number of multipoles equal to 2499
#
# -> if you prefer output in CAMB/HealPix/LensPix units/order, set 'format' to 'camb' in input file
# -> if you don't want to see such a header, set 'headers' to 'no' in input file
# -> for CMB lensing (phi), these are C_l^phi-phi for the lensing potential.
#    Remember the conversion factors:
#    C_l^dd (deflection) = l(l+1) C_l^phi-phi
#    C_l^gg (shear/convergence) = 1/4 (l(l+1))^2 C_l^phi-phi
#
# 1:l     2:TT                     3:EE                     4:TE                     5:BB                     6:phiphi                 7:TPhi                   8:Ephi               
    2       1.577840425180e-10       7.379789186309e-15       4.577714546298e-13       2.302965490829e-19       8.232924240937e-09       5.180427875547e-10      -2.490073752365e-12 
    3       1.498512397916e-10       1.243840691132e-14       5.727080765591e-13       4.608098104076e-19       5.054696204858e-09       3.797592912357e-10      -2.184008587556e-12 
    4       1.409400633927e-10       1.433585013552e-14       5.934503351493e-13       7.684903536863e-19       3.509781307228e-09       2.939178659384e-10      -1.727325884106e-12 
    5       1.334986291028e-10       1.302371387166e-14       5.584229337406e-13       1.153606324849e-18       2.618797639923e-09       2.359266612324e-10      -1.263517580668e-12 
    6       1.278057795938e-10       9.837858179982e-15       4.945565326804e-13       1.616475694675e-18       2.045885390514e-09       1.943335326665e-10      -8.430872736948e-13 
    7       1.236340604704e-10       6.376961033265e-15       4.204378456387e-13       2.157455798728e-18       1.651107929723e-09       1.632031410922e-10      -4.914920039684e-13 
    8       1.206853565303e-10       3.713493673524e-15       3.475431286139e-13       2.776931745650e-18       1.365242810709e-09       1.391990957942e-10      -2.195546791001e-13 
    9       1.187557579224e-10       2.174384425871e-15       2.828213096984e-13       3.475304151594e-18       1.150153358382e-09       1.202698362490e-10      -2.804001817509e-14 
   10       1.175960066690e-10       1.533667730578e-15       2.302709551747e-13       4.252976683742e-18       9.834116910811e-10       1.050426280118e-10       8.977691909734e-14 
   11       1.170398998714e-10       1.359798064650e-15       1.917057624172e-13       5.110343901331e-18       8.304473008555e-10       9.285806141509e-11       1.450625131345e-13 
   12       1.169692761287e-10       1.297654165337e-15       1.669671218852e-13       6.047779868296e-18       7.259427658737e-10       8.244789777236e-11       1.540606580109e-13 
   13       1.172733871543e-10       1.185575561843e-15       1.544201155889e-13       7.065627977983e-18       6.401333068046e-10       7.378869477743e-11       1.311514403279e-13 
   14       1.178797921170e-10       1.025759335508e-15       1.515657624590e-13       8.164192378888e-18       5.687109426514e-10       6.642676611354e-11       9.037815238944e-14 
   15       1.187015927579e-10       8.881089758098e-16       1.555836516430e-13       9.343731323036e-18       5.085748173246e-10       6.020743038950e-11       4.402225837027e-14 
   16       1.197652310149e-10       8.258942204277e-16       1.636409662724e-13       1.060445267828e-17       4.574292288230e-10       5.484491358244e-11       1.073086653669e-15 
   17       1.209453757611e-10       8.422215210999e-16       1.733632396591e-13       1.194651175563e-17       4.135404345231e-10       5.017862278057e-11      -3.259201761077e-14 
   18       1.222610055746e-10       9.003574642032e-16       1.830894177433e-13       1.337001037337e-17       3.754344604968e-10       4.605364647563e-11      -5.417175767102e-14 
   19       1.237295931804e-10       9.703514267219e-16       1.919844675860e-13       1.487500504649e-17       3.425093208506e-10       4.242348947113e-11      -6.346336966423e-14 
   20       1.252860893712e-10       1.026493893285e-15       1.994155288171e-13       1.646149931342e-17       3.135012351324e-10       3.918912592537e-11      -6.208266546744e-14 
   21       1.269265173565e-10       1.078573378406e-15       2.054877098282e-13       1.812946699467e-17       2.879571444757e-10       3.630431843173e-11      -5.273105457887e-14 
   22       1.286332900416e-10       1.150479496892e-15       2.106337527519e-13       1.987884303165e-17       2.652678719731e-10       3.369638289979e-11      -3.922622278158e-14 
   23       1.304077517874e-10       1.258606776110e-15       2.152627379737e-13       2.170955113569e-17       2.451233300531e-10       3.134686042085e-11      -2.462361757623e-14 
   24       1.322346711042e-10       1.415024091401e-15       2.198307724231e-13       2.362149458238e-17       2.270599079939e-10       2.922570269753e-11      -1.192993863451e-14 
   25       1.341139545328e-10       1.615985989140e-15       2.247498259806e-13       2.561458844134e-17       2.108665632060e-10       2.730931739446e-11      -2.710848980018e-15 
   26       1.360353838725e-10       1.851602225847e-15       2.303616784431e-13       2.768874832664e-17       1.962515586670e-10       2.556068791584e-11       2.104721138971e-15 
   27       1.380038219362e-10       2.117302482239e-15       2.365861121102e-13       2.984391862244e-17       1.830404703942e-10       2.397542033007e-11       2.712144659045e-15 
   28       1.400179748936e-10       2.409911590277e-15       2.431411006107e-13       3.208006527778e-17       1.710064091543e-10       2.254609264645e-11      -1.021597621621e-16 
   29       1.420831144592e-10       2.729246458326e-15       2.496835002976e-13       3.439720828701e-17       1.600885648904e-10       2.125946935163e-11      -5.317988422578e-15 
   30       1.441926174104e-10       3.075876947150e-15       2.557599514058e-13       3.679540346222e-17       1.501704163647e-10       2.008458422272e-11      -1.153736709649e-14 
   31       1.463289246355e-10       3.449827950919e-15       2.608546064171e-13       3.927474228555e-17       1.410505173181e-10       1.898093817984e-11      -1.719490507611e-14 
   32       1.484966813447e-10       3.849304045982e-15       2.646414733697e-13       4.183537352072e-17       1.326822038418e-10       1.794741784538e-11      -2.154925516855e-14 
   33       1.506992857973e-10       4.271403385801e-15       2.668186536014e-13       4.447749738582e-17       1.250066669221e-10       1.698985531923e-11      -2.404502894276e-14 
   34       1.529324770349e-10       4.713874459062e-15       2.671088988124e-13       4.720135973244e-17       1.179169457217e-10       1.610806841368e-11      -2.423829504228e-14 
   35       1.551965934460e-10       5.180272763751e-15       2.654980036526e-13       5.000723488228e-17       1.113770492720e-10       1.529735134770e-11      -2.243992383199e-14 
   36       1.574867432530e-10       5.676697054364e-15       2.620835167674e-13       5.289544399713e-17       1.053348187743e-10       1.454630672666e-11      -1.931428267859e-14 
   37       1.597940467421e-10       6.209255256024e-15       2.570007104744e-13       5.586634120768e-17       9.971197935713e-11       1.384045377667e-11      -1.561808961786e-14 
   38       1.621244129127e-10       6.779722972783e-15       2.503706960528e-13       5.892023643507e-17       9.449420179310e-11       1.317833041484e-11      -1.183577148509e-14 
   39       1.644847886634e-10       7.388482177155e-15       2.423402815942e-13       6.205745188441e-17       8.966511192506e-11       1.255998355163e-11      -8.438205526767e-15 
   40       1.668774516101e-10       8.035659602511e-15       2.330991430736e-13       6.527834548304e-17       8.517888985861e-11       1.198228743572e-11      -5.987306126735e-15 
   41       1.693011137975e-10       8.721203257066e-15       2.228171010921e-13       6.858327546840e-17       8.097627456587e-11       1.144040842820e-11      -4.973187945311e-15 
   42       1.717559453803e-10       9.445187099779e-15       2.114252908644e-13       7.197247510205e-17       7.704502153801e-11       1.093346937157e-11      -5.248993601643e-15 
   43       1.742392898057e-10       1.020757391488e-14       1.987680288598e-13       7.544614080148e-17       7.337480064716e-11       1.046024145143e-11      -6.421121442258e-15 
   44       1.767437561192e-10       1.100811654696e-14       1.846600141229e-13       7.900446577118e-17       6.993905095915e-11       1.001738275121e-11      -7.995471458243e-15 
   45       1.792608890437e-10       1.184653625430e-14       1.689118385436e-13       8.264760613253e-17       6.670449432689e-11       9.600603501768e-12      -9.471777235241e-15 
   46       1.817944781556e-10       1.272315013200e-14       1.514202154885e-13       8.637556828831e-17       6.366611415602e-11       9.208976024970e-12      -1.067484717297e-14 
   47       1.843505126108e-10       1.363841048942e-14       1.321014031173e-13       9.018828712688e-17       6.082043492004e-11       8.841625437082e-12      -1.151180117024e-14 
   48       1.869332561852e-10       1.459272936292e-14       1.108657204073e-13       9.408565421450e-17       5.815497070194e-11       8.496417065192e-12      -1.187973206354e-14 
   49       1.895450625047e-10       1.558647727811e-14       8.761717538896e-14       9.806751542494e-17       5.564755480773e-11       8.169864077144e-12      -1.166529330394e-14 
   50       1.921868267499e-10       1.661993475260e-14       6.228335263310e-14       1.021336661815e-16       5.327302887390e-11       7.858176090351e-12      -1.079820141502e-14 
   51       1.948599139796e-10       1.769313415671e-14       3.491550220417e-14       1.062838411597e-16       5.102700600130e-11       7.560954851619e-12      -9.429820742768e-15 
   52       1.975644348439e-10       1.880597278807e-14       5.614976103760e-15       1.105177176925e-16       4.890739905111e-11       7.278342040509e-12      -7.802340791538e-15 
   53       2.002985037127e-10       1.995825299972e-14      -2.549362923981e-14       1.148349154889e-16       4.690730853637e-11       7.009928207166e-12      -6.201172610284e-15 
   54       2.030580838583e-10       2.114967873841e-14      -5.826142077148e-14       1.192349941518e-16       4.501469856466e-11       6.754714095376e-12      -4.957073635610e-15 
   55       2.058388015753e-10       2.237994535666e-14      -9.255261357849e-14       1.237175023307e-16       4.321607619015e-11       6.511481007886e-12      -4.362141326674e-15 
   56       2.086422709584e-10       2.364904310699e-14      -1.283700370795e-13       1.282821451678e-16       4.150934221315e-11       6.280098250372e-12      -4.388488032310e-15 
   57       2.114710691600e-10       2.495702297865e-14      -1.657589642562e-13       1.329286541004e-16       3.989356518308e-11       6.060472738920e-12      -4.903400750897e-15 
   58       2.143268287063e-10       2.630391019784e-14      -2.047718227622e-13       1.376567384087e-16       3.836509326666e-11       5.852146169215e-12      -5.748145120424e-15 
   59       2.172101593917e-10       2.768970440004e-14      -2.454686410462e-13       1.424660847450e-16       3.691738616756e-11       5.654272276312e-12      -6.736734500201e-15 
   60       2.201205701732e-10       2.911437980225e-14      -2.879174944759e-13       1.473563566627e-16       3.554084704593e-11       5.465594094401e-12      -7.654699052564e-15 
   61       2.230572990099e-10       3.057778456470e-14      -3.321798663269e-13       1.523272672965e-16       3.422549134881e-11       5.284799163793e-12      -8.308426033350e-15 
   62       2.260221967462e-10       3.207931208905e-14      -3.782618817483e-13       1.573788175319e-16       3.297003356996e-11       5.111729766030e-12      -8.688907079273e-15 
   63       2.290173548931e-10       3.361815590952e-14      -4.261528695762e-13       1.625111107031e-16       3.177455113137e-11       4.946405222361e-12      -8.842728740967e-15 
   64       2.320442064819e-10       3.519340102648e-14      -4.758394496940e-13       1.677242859726e-16       3.063775093139e-11       4.788657382102e-12      -8.825110857666e-15 
   65       2.351034767670e-10       3.680402088015e-14      -5.273055005161e-13       1.730185201807e-16       2.955689127733e-11       4.638119874381e-12      -8.700280225121e-15 
   66       2.381951339282e-10       3.844887432422e-14      -5.805321264712e-13       1.783940296962e-16       2.852770381808e-11       4.494217359888e-12      -8.541844263515e-15 
   67       2.413183397736e-10       4.012670259950e-14      -6.354976254863e-13       1.838510722658e-16       2.754431547671e-11       4.356154782615e-12      -8.433164685385e-15 
   68       2.444721038175e-10       4.183626045953e-14      -6.921782543047e-13       1.893899369758e-16       2.660081908167e-11       4.223140470070e-12      -8.448207740306e-15 
   69       2.476575096077e-10       4.357674716533e-14      -7.505507771998e-13       1.950109076366e-16       2.569652932400e-11       4.095131953554e-12      -8.588753866471e-15 
   70       2.508758530238e-10       4.534745778612e-14      -8.105903776569e-13       2.007142952683e-16       2.483165644506e-11       3.972222656433e-12      -8.835077877550e-15 
   71       2.541279480688e-10       4.714765717171e-14      -8.722698943380e-13       2.065004508511e-16       2.400571651078e-11       3.854416734957e-12      -9.164223262908e-15 
   72       2.574140955612e-10       4.897658035714e-14      -9.355598089705e-13       2.123697668719e-16       2.321749551043e-11       3.741624310786e-12      -9.549876535235e-15 
   73       2.607340518269e-10       5.083343296732e-14      -1.000428234236e-12       2.183226788696e-16       2.246501345549e-11       3.633656703516e-12      -9.962241578179e-15 
   74       2.640869973903e-10       5.271739162167e-14      -1.066840901657e-12       2.243596669817e-16       2.174548847844e-11       3.530221663207e-12      -1.036791399398e-14 
   75       2.674715056670e-10       5.462760433872e-14      -1.134761149490e-12       2.304812574897e-16       2.105530093160e-11       3.430918602903e-12      -1.072975545108e-14 
   76       2.708861525299e-10       5.656304067151e-14      -1.204148990095e-12       2.366879318976e-16       2.039089284614e-11       3.335342531454e-12      -1.101496066279e-14 
   77       2.743315425474e-10       5.852200966850e-14      -1.274958142494e-12       2.429798316067e-16       1.975173502938e-11       3.243428271176e-12      -1.122123439225e-14 
   78       2.778085970758e-10       6.050255433728e-14      -1.347138434171e-12       2.493570019457e-16       1.913783832060e-11       3.155160640030e-12      -1.135518184330e-14 
   79       2.813179282907e-10       6.250259148220e-14      -1.420636643092e-12       2.558194795155e-16       1.854884978047e-11       3.070468822466e-12      -1.142458116495e-14 
   80       2.848598210202e-10       6.451990902767e-14      -1.495396466716e-12       2.623672918400e-16       1.798403597011e-11       2.989223830934e-12      -1.143842579548e-14 
   81       2.884342145790e-10       6.655216334140e-14      -1.571358491011e-12       2.690004570154e-16       1.744226623034e-11       2.911235967402e-12      -1.140696680669e-14 
   82       2.920406846012e-10       6.859687655762e-14      -1.648460159464e-12       2.757189833602e-16       1.692199596071e-11       2.836252284862e-12      -1.134175524800e-14 
   83       2.956784248741e-10       7.065143390037e-14      -1.726635742095e-12       2.825228690651e-16       1.642124989873e-11       2.763954048850e-12      -1.125568449065e-14 
   84       2.993466315418e-10       7.271333119960e-14      -1.805821617626e-12       2.894121165791e-16       1.593810265052e-11       2.694034106917e-12      -1.116033086326e-14 
   85       3.030457686924e-10       7.478097044903e-14      -1.885973193989e-12       2.963867792766e-16       1.547224843941e-11       2.626449294586e-12      -1.105737625919e-14 
   86       3.067764802463e-10       7.685299184048e-14      -1.967050749106e-12       3.034469219207e-16       1.502366214148e-11       2.561205413317e-12      -1.094583460372e-14 
   87       3.105391950043e-10       7.892803680277e-14      -2.049014424587e-12       3.105926065135e-16       1.459211693109e-11       2.498279865044e-12      -1.082462411754e-14 
   88       3.143341152435e-10       8.100474952994e-14      -2.131824284042e-12       3.178238921940e-16       1.417717591719e-11       2.437620456680e-12      -1.069256425403e-14 
   89       3.181612053132e-10       8.308177850941e-14      -2.215440371385e-12       3.251408351351e-16       1.377818377964e-11       2.379144204619e-12      -1.054837263653e-14 
   90       3.220201802311e-10       8.515777805010e-14      -2.299822769147e-12       3.325434884415e-16       1.339425840550e-11       2.322736139243e-12      -1.039066199570e-14 
   91       3.259104942789e-10       8.723140981066e-14      -2.384931656784e-12       3.400319020471e-16       1.302428252533e-11       2.268248109424e-12      -1.021793710674e-14 
   92       3.298313295984e-10       8.930134432761e-14      -2.470727368986e-12       3.476061226126e-16       1.266689534952e-11       2.215497587030e-12      -1.002859172676e-14 
   93       3.337818672818e-10       9.136615262607e-14      -2.557165068792e-12       3.552663015895e-16       1.232081566626e-11       2.164311868942e-12      -9.821624674419e-15 
   94       3.377621720512e-10       9.342395908522e-14      -2.644177723821e-12       3.630130382288e-16       1.198588488847e-11       2.114670884419e-12      -9.598917917730e-15 
   95       3.417724201690e-10       9.547273894629e-14      -2.731690665555e-12       3.708470882113e-16       1.166216614751e-11       2.066583755557e-12      -9.363297042468e-15 
   96       3.458126213738e-10       9.751042359713e-14      -2.819626731005e-12       3.787692614414e-16       1.134962304668e-11       2.020044748872e-12      -9.117849355902e-15 
   97       3.498826113545e-10       9.953490059157e-14      -2.907906247093e-12       3.867804234297e-16       1.104811584743e-11       1.975032702963e-12      -8.865930695651e-15 
   98       3.539820442233e-10       1.015440136688e-13      -2.996447015043e-12       3.948814966745e-16       1.075739765558e-11       1.931510456181e-12      -8.611172238524e-15 
   99       3.581103849902e-10       1.035355627725e-13      -3.085164294766e-12       4.030734620450e-16       1.047711060760e-11       1.889424274304e-12      -8.357487309377e-15 
  100       3.622669020362e-10       1.055073040707e-13      -3.173970789253e-12       4.113573601629e-16       1.020678205677e-11       1.848703278197e-12      -8.109078189954e-15 
  101       3.664506595870e-10       1.074569499745e-13      -3.262776628954e-12       4.197342927853e-16       9.945820759462e-12       1.809258871484e-12      -7.870442927741e-15 
  102       3.706605101872e-10       1.093821691579e-13      -3.351489356174e-12       4.282054241863e-16       9.693513061330e-12       1.770984168219e-12      -7.646382144806e-15 
  103       3.748950871734e-10       1.112805865768e-13      -3.440013909456e-12       4.367719825401e-16       9.449019083566e-12       1.733753420552e-12      -7.442005846655e-15 
  104       3.791530832797e-10       1.131498953616e-13      -3.528257805662e-12       4.454351356844e-16       9.211563216851e-12       1.697451632655e-12      -7.261583601450e-15 
  105       3.834341455260e-10       1.149882096660e-13      -3.616147517069e-12       4.541955963218e-16       8.981043124306e-12       1.662069191205e-12      -7.104903516959e-15 
  106       3.877380877473e-10       1.167937597406e-13      -3.703614287775e-12       4.630539658159e-16       8.757496278985e-12       1.627619010623e-12      -6.970431818403e-15 
  107       3.920646109286e-10       1.185647855505e-13      -3.790589174565e-12       4.720108550487e-16       8.540911344227e-12       1.594107250621e-12      -6.856419726467e-15 
