# dimensionless total lensed [l(l+1)/2pi] C_l's
# for l=2 to 2500, i.e. number of multipoles equal to 2499
#
# -> if you prefer output in CAMB/HealPix/LensPix units/order, set 'format' to 'camb' in input file
# -> if you don't want to see such a header, set 'headers' to 'no' in input file
# -> for CMB lensing (phi), these are C_l^phi-phi for the lensing potential.
#    Remember the conversion factors:
#    C_l^dd (deflection) = l(l+1) C_l^phi-phi
#    C_l^gg (shear/convergence) = 1/4 (l(l+1))^2 C_l^phi-phi
#
# 1:l     2:TT                     3:EE                     4:TE                     5:BB                     6:phiphi                 7:TPhi                   8:Ephi               
    2       1.591974620444e-10       7.397519352504e-15       4.547152028917e-13       2.293491503386e-19       8.171643285898e-09       5.236554456158e-10      -2.488595972588e-12 
    3       1.512967755390e-10       1.245489557115e-14       5.689447165316e-13       4.589128433617e-19       5.009556902185e-09       3.848285005580e-10      -2.182013102197e-12 
    4       1.422695889759e-10       1.432558342296e-14       5.900014171188e-13       7.653240158225e-19       3.478776871790e-09       2.982605930696e-10      -1.723656519543e-12 
    5       1.346830790551e-10       1.297993924527e-14       5.555775548022e-13       1.148848181626e-18       2.596302118921e-09       2.396215546587e-10      -1.258241679428e-12 
    6       1.288565442266e-10       9.774626027032e-15       4.923759892555e-13       1.609800236335e-18       2.028650375456e-09       1.974930157980e-10      -8.368009310245e-13 
    7       1.245500010105e-10       6.316037428520e-15       4.189084330863e-13       2.148534126486e-18       1.637431098256e-09       1.659250673010e-10      -4.849221636477e-13 
    8       1.215075569608e-10       3.670793572367e-15       3.465071841575e-13       2.765431400077e-18       1.353995328029e-09       1.415484443058e-10      -2.134079884407e-13 
    9       1.194985714378e-10       2.153610291904e-15       2.821459925529e-13       3.460889089832e-18       1.140635567617e-09       1.223114876655e-10      -2.288003465253e-14 
   10       1.182475658014e-10       1.528381094174e-15       2.299581756063e-13       4.235307405678e-18       9.752077411403e-10       1.068591676227e-10       9.359473548726e-14 
   11       1.176584456166e-10       1.360142386295e-15       1.916840178553e-13       5.089077718363e-18       8.238885439231e-10       9.455889335655e-11       1.475200322073e-13 
   12       1.175563668189e-10       1.296531572889e-15       1.671167783510e-13       6.022571302034e-18       7.202582440816e-10       8.394314204823e-11       1.549953174162e-13 
   13       1.178017921086e-10       1.181090686194e-15       1.547239177005e-13       7.036129270489e-18       6.351587059317e-10       7.522704462762e-11       1.311596512865e-13 
   14       1.183723966846e-10       1.019914331654e-15       1.520011919866e-13       8.130054091076e-18       5.643279361659e-10       6.766201018471e-11       8.955968811772e-14 
   15       1.191959786006e-10       8.838234319685e-16       1.560280129129e-13       9.304602993854e-18       5.046840988894e-10       6.129142087480e-11       4.279293882068e-14 
   16       1.201970480055e-10       8.245505011804e-16       1.640752990942e-13       1.055998351446e-17       4.539533538360e-10       5.584338019068e-11      -1.922102593550e-16 
   17       1.213887806961e-10       8.430501936796e-16       1.738004168898e-13       1.189635132023e-17       4.104179641908e-10       5.112231889958e-11      -3.359197817865e-14 
   18       1.226890384500e-10       9.016179582355e-16       1.834480582647e-13       1.331380925715e-17       3.726175250848e-10       4.695545324851e-11      -5.463587394294e-14 
   19       1.241099393751e-10       9.708983523455e-16       1.922429388900e-13       1.481241539546e-17       3.399549431057e-10       4.327373461327e-11      -6.328895290991e-14 
   20       1.256428115869e-10       1.026405241169e-15       1.996635478804e-13       1.639217543820e-17       3.111767887569e-10       3.995853749328e-11      -6.139868306558e-14 
   21       1.272791189041e-10       1.078827423191e-15       2.057643016076e-13       1.805306563254e-17       2.858339633979e-10       3.699448387185e-11      -5.174020004647e-14 
   22       1.289780732172e-10       1.152714402416e-15       2.108849232295e-13       1.979502371100e-17       2.633225363697e-10       3.434965307008e-11      -3.813675201875e-14 
   23       1.307492584477e-10       1.263909588237e-15       2.154914299716e-13       2.161797614738e-17       2.433351370801e-10       3.197616547744e-11      -2.359466549878e-14 
   24       1.325922431390e-10       1.423474507460e-15       2.201310683383e-13       2.352182905339e-17       2.254120017215e-10       2.979803268315e-11      -1.104806576003e-14 
   25       1.344927054347e-10       1.627220892455e-15       2.251617151475e-13       2.550649997261e-17       2.093437100160e-10       2.781803123624e-11      -2.044191188826e-15 
   26       1.364191184431e-10       1.865066721573e-15       2.308318799607e-13       2.757190675508e-17       1.948407341074e-10       2.604238913112e-11       2.496091981893e-15 
   27       1.383818699306e-10       2.132741332322e-15       2.370723881236e-13       2.971799541366e-17       1.817302041448e-10       2.444910598861e-11       2.796046454942e-15 
   28       1.403925688633e-10       2.427499443929e-15       2.436405786916e-13       3.194473299846e-17       1.697872686733e-10       2.299679347043e-11      -3.154971632926e-16 
   29       1.424557316744e-10       2.749141623084e-15       2.501843165769e-13       3.425213971158e-17       1.589516845965e-10       2.167497977645e-11      -5.761093340088e-15 
   30       1.445588140765e-10       3.098057448749e-15       2.562223534957e-13       3.664027084493e-17       1.491078693271e-10       2.046947144871e-11      -1.207089935570e-14 
   31       1.466788614999e-10       3.474105091308e-15       2.612151349339e-13       3.910921664443e-17       1.400559756861e-10       1.935526331984e-11      -1.762094420041e-14 
   32       1.488234100642e-10       3.875551910272e-15       2.648558462272e-13       4.165912380312e-17       1.317497820917e-10       1.832447316364e-11      -2.172360690591e-14 
   33       1.510022991185e-10       4.299656718039e-15       2.668812970346e-13       4.429018958220e-17       1.241310323190e-10       1.736671106526e-11      -2.393027554567e-14 
   34       1.532181375662e-10       4.744356069036e-15       2.670523236938e-13       4.700265607271e-17       1.170936713096e-10       1.646663600947e-11      -2.390566461929e-14 
   35       1.554742574790e-10       5.213357693794e-15       2.653542418912e-13       4.979679347445e-17       1.106019545700e-10       1.562428578898e-11      -2.197441322093e-14 
   36       1.577677338247e-10       5.712921459731e-15       2.618701431104e-13       5.267291806888e-17       1.046040398753e-10       1.484078801505e-11      -1.878296828696e-14 
   37       1.600905972715e-10       6.249285190990e-15       2.567192206251e-13       5.563137855791e-17       9.902217173475e-11       1.411376209453e-11      -1.506872433094e-14 
   38       1.624446228303e-10       6.824122719367e-15       2.500140945985e-13       5.867248021465e-17       9.384216536559e-11       1.344156603732e-11      -1.131367631824e-14 
   39       1.648301386599e-10       7.437614131361e-15       2.418942166374e-13       6.179654042028e-17       8.904784544143e-11       1.281975481317e-11      -7.990528801925e-15 
   40       1.672412593589e-10       8.089633614977e-15       2.325404608559e-13       6.500391171089e-17       8.459382557292e-11       1.223946469433e-11      -5.662298085094e-15 
   41       1.696694792018e-10       8.779897005090e-15       2.221148855723e-13       6.829494692678e-17       8.042137060577e-11       1.169038210450e-11      -4.815229915412e-15 
   42       1.721173759092e-10       9.508515223340e-15       2.105505431050e-13       7.166987589703e-17       7.651832355288e-11       1.117171111455e-11      -5.279396727933e-15 
   43       1.745883055839e-10       1.027558386645e-14       1.976973706863e-13       7.512889219588e-17       7.287439507876e-11       1.068414706714e-11      -6.628405698105e-15 
   44       1.770822288175e-10       1.108101893464e-14       1.833771484439e-13       7.867218625279e-17       6.946317439476e-11       1.022670069260e-11      -8.329069902799e-15 
   45       1.795975103539e-10       1.192468809941e-14       1.674075175075e-13       8.229991197377e-17       6.625158606145e-11       9.797306135783e-12      -9.846810514278e-15 
   46       1.821377633592e-10       1.280687575746e-14       1.496869909973e-13       8.601207572389e-17       6.323465729509e-11       9.395201194001e-12      -1.101489085163e-14 
   47       1.847064711794e-10       1.372793935813e-14       1.301321861115e-13       8.980861341971e-17       6.040896076723e-11       9.019013686564e-12      -1.176441549289e-14 
   48       1.873048121543e-10       1.468817766727e-14       1.086537834421e-13       9.368941832527e-17       5.776212822478e-11       8.665973083844e-12      -1.202184854854e-14 
   49       1.899314418532e-10       1.568782854778e-14       8.515615293012e-14       9.765433872236e-17       5.527218516704e-11       8.331809795005e-12      -1.170890475577e-14 
   50       1.925837983966e-10       1.672706289412e-14       5.956764223710e-14       1.017031731790e-16       5.291418493836e-11       8.012028412065e-12      -1.078736693191e-14 
   51       1.952629413354e-10       1.780596964367e-14       3.194200191950e-14       1.058356602452e-16       5.068377746487e-11       7.706368532653e-12      -9.408132581174e-15 
   52       1.979696498125e-10       1.892456286049e-14       2.383844412762e-15       1.100514819333e-16       4.857888793337e-11       7.415380689832e-12      -7.802436054255e-15 
   53       2.007028716511e-10       2.008278288244e-14      -2.897856864483e-14       1.143502634906e-16       4.659266233293e-11       7.139123023926e-12      -6.242415864783e-15 
   54       2.034595772652e-10       2.128049392079e-14      -6.199225751925e-14       1.187315709572e-16       4.471314563380e-11       6.877125227024e-12      -5.043119965199e-15 
   55       2.062364732958e-10       2.251753018051e-14      -9.651856080563e-14       1.231949595682e-16       4.292693641516e-11       6.628620365463e-12      -4.481780813570e-15 
   56       2.090359767076e-10       2.379385313703e-14      -1.325640494905e-13       1.277401386391e-16       4.123195117559e-11       6.393390386457e-12      -4.527563052294e-15 
   57       2.118614688991e-10       2.510942912592e-14      -1.701802625031e-13       1.323668433629e-16       3.962726725647e-11       6.171067499423e-12      -5.048191749214e-15 
   58       2.147154939751e-10       2.646418374649e-14      -2.094269336730e-13       1.370747871023e-16       3.810926094876e-11       5.960859639485e-12      -5.885609047970e-15 
   59       2.175996851137e-10       2.785800135183e-14      -2.503724853818e-13       1.418636609275e-16       3.667144059849e-11       5.761524848780e-12      -6.854756188994e-15 
   60       2.205146909339e-10       2.929072453881e-14      -2.930945222153e-13       1.467331331548e-16       3.530427971233e-11       5.571345657757e-12      -7.742355530515e-15 
   61       2.234606817776e-10       3.076208108344e-14      -3.376625004434e-13       1.516829210504e-16       3.399786675083e-11       5.388590731015e-12      -8.356464058615e-15 
   62       2.264391679272e-10       3.227144673599e-14      -3.840800739636e-13       1.567130257936e-16       3.275092710048e-11       5.213078849305e-12      -8.690886987297e-15 
   63       2.294514607018e-10       3.381802803540e-14      -4.323306243854e-13       1.618235496742e-16       3.156353923903e-11       5.044922116873e-12      -8.795675181526e-15 
   64       2.324980744173e-10       3.540092740934e-14      -4.823938727860e-13       1.670146303730e-16       3.043442075694e-11       4.884059717514e-12      -8.729995361047e-15 
   65       2.355786711545e-10       3.701914036211e-14      -5.342458078145e-13       1.722864427899e-16       2.936085083430e-11       4.730247756402e-12      -8.562523062333e-15 
   66       2.386920055270e-10       3.867155266255e-14      -5.878586137965e-13       1.776392008718e-16       2.833859271769e-11       4.583049101933e-12      -8.371835600539e-15 
   67       2.418358694485e-10       4.035693753199e-14      -6.432005988387e-13       1.830731594409e-16       2.736181619715e-11       4.441823227562e-12      -8.246805031453e-15 
   68       2.450080341136e-10       4.207407889765e-14      -7.002392782130e-13       1.885886045284e-16       2.642465699203e-11       4.305915753589e-12      -8.265938088092e-15 
   69       2.482094210433e-10       4.382217643959e-14      -7.589515107192e-13       1.941858180166e-16       2.552643510992e-11       4.175294377079e-12      -8.429656413562e-15 
   70       2.514414773072e-10       4.560051794228e-14      -8.193152964968e-13       1.998651090834e-16       2.466735945708e-11       4.050024141574e-12      -8.714937408034e-15 
   71       2.547052059669e-10       4.740836089562e-14      -8.813068121174e-13       2.056268265692e-16       2.384694946654e-11       3.930074178075e-12      -9.095010284281e-15 
   72       2.580011363483e-10       4.924493290704e-14      -9.449004193865e-13       2.114713605112e-16       2.306399943969e-11       3.815312654300e-12      -9.539210589088e-15 
   73       2.613292943128e-10       5.110943211356e-14      -1.010068674146e-12       2.173991436773e-16       2.231654288790e-11       3.705501723934e-12      -1.001283472465e-14 
   74       2.646891725298e-10       5.300102759396e-14      -1.076782335077e-12       2.234106531002e-16       2.160181687408e-11       3.600292475884e-12      -1.047699446999e-14 
   75       2.680797007483e-10       5.491885978079e-14      -1.145010372499e-12       2.295064116118e-16       2.091622635428e-11       3.499219883532e-12      -1.088847150234e-14 
   76       2.714998216531e-10       5.686188669711e-14      -1.214717784741e-12       2.356868983255e-16       2.025623759643e-11       3.401821665020e-12      -1.120909180350e-14 
   77       2.749504053807e-10       5.882838938420e-14      -1.285858568066e-12       2.419522578483e-16       1.962132534864e-11       3.308031052142e-12      -1.143614402222e-14 
   78       2.784326317368e-10       6.081637661588e-14      -1.358381474810e-12       2.483025405831e-16       1.901150081402e-11       3.217846801328e-12      -1.157726951275e-14 
   79       2.819473985538e-10       6.282372836812e-14      -1.432232056522e-12       2.547377887483e-16       1.842641391284e-11       3.131213167351e-12      -1.164148347022e-14 
   80       2.854953043805e-10       6.484819306968e-14      -1.507352627809e-12       2.612580360447e-16       1.786533667557e-11       3.048017393475e-12      -1.163922466499e-14 
   81       2.890766311723e-10       6.688738485269e-14      -1.583682230177e-12       2.678633073227e-16       1.732714663594e-11       2.968087201605e-12      -1.158240517699e-14 
   82       2.926913269810e-10       6.893878080325e-14      -1.661156595878e-12       2.745536182493e-16       1.681031022405e-11       2.891188282437e-12      -1.148446013012e-14 
   83       2.963389886444e-10       7.099971821207e-14      -1.739708111755e-12       2.813289749750e-16       1.631286615940e-11       2.817021785605e-12      -1.136039742654e-14 
   84       3.000191331421e-10       7.306764983031e-14      -1.819271157041e-12       2.881893880127e-16       1.583290264870e-11       2.745298455141e-12      -1.122389529927e-14 
   85       3.037321012659e-10       7.514096427978e-14      -1.899799212689e-12       2.951349172457e-16       1.537011625119e-11       2.675980654654e-12      -1.107793318066e-14 
   86       3.074782727180e-10       7.721829724086e-14      -1.981250535304e-12       3.021656338052e-16       1.492448219373e-11       2.609076049664e-12      -1.092269159419e-14 
   87       3.112577784903e-10       7.929828710325e-14      -2.063583088738e-12       3.092816064297e-16       1.449577535794e-11       2.544563325964e-12      -1.075836635496e-14 
   88       3.150704884055e-10       8.137957655277e-14      -2.146754598253e-12       3.164829013702e-16       1.408356197250e-11       2.482390967928e-12      -1.058516868748e-14 
   89       3.189159986591e-10       8.346081415822e-14      -2.230722604686e-12       3.237695822966e-16       1.368719130545e-11       2.422476036817e-12      -1.040332534353e-14 
   90       3.227936193604e-10       8.554065595818e-14      -2.315444518605e-12       3.311417102036e-16       1.330578735652e-11       2.364702949081e-12      -1.021307872008e-14 
   91       3.267023620739e-10       8.761776704788e-14      -2.400877674481e-12       3.385993433163e-16       1.293824054941e-11       2.308922254672e-12      -1.001468697708e-14 
   92       3.306409273610e-10       8.969082316598e-14      -2.486979384846e-12       3.461425369963e-16       1.258319942411e-11       2.254949415342e-12      -9.808424155320e-15 
   93       3.346080811297e-10       9.175839846854e-14      -2.573702243000e-12       3.537714499697e-16       1.223939152951e-11       2.202608906621e-12      -9.594785363566e-15 
   94       3.386038754942e-10       9.381860609635e-14      -2.660979105355e-12       3.614866814913e-16       1.190665935315e-11       2.151876764739e-12      -9.375137384837e-15 
   95       3.426285893524e-10       9.586940623125e-14      -2.748735940067e-12       3.692889849520e-16       1.158506556027e-11       2.102757319737e-12      -9.151166594552e-15 
   96       3.466823489122e-10       9.790871511650e-14      -2.836896366329e-12       3.771791674218e-16       1.127457393787e-11       2.055239190555e-12      -8.924685503529e-15 
   97       3.507651205694e-10       9.993440508132e-14      -2.925381643317e-12       3.851580910152e-16       1.097504560592e-11       2.009294685484e-12      -8.697635690795e-15 
   98       3.548767037869e-10       1.019443045654e-13      -3.014110659123e-12       3.932266742567e-16       1.068623522853e-11       1.964879202628e-12      -8.472090736392e-15 
   99       3.590167239729e-10       1.039361981435e-13      -3.102999919702e-12       4.013858934460e-16       1.040778722516e-11       1.921930630353e-12      -8.250259154184e-15 
  100       3.631846253594e-10       1.059078265501e-13      -3.191963537809e-12       4.096367840233e-16       1.013923198176e-11       1.880368747752e-12      -8.034487324664e-15 
  101       3.673796638806e-10       1.078568867034e-13      -3.280913221943e-12       4.179804419347e-16       9.879982062016e-12       1.840094625094e-12      -7.827262427764e-15 
  102       3.716009000520e-10       1.097810317307e-13      -3.369758265282e-12       4.264180249979e-16       9.629328418485e-12       1.800990024285e-12      -7.631215375660e-15 
  103       3.758471918481e-10       1.116778709922e-13      -3.458405534631e-12       4.349507542668e-16       9.386436603811e-12       1.762916799319e-12      -7.449123745579e-15 
  104       3.801174224852e-10       1.135450834510e-13      -3.546764094622e-12       4.435797915775e-16       9.150536039863e-12       1.725749527088e-12      -7.283286185407e-15 
  105       3.844112341489e-10       1.153807751698e-13      -3.634759815581e-12       4.523058504030e-16       8.921525104061e-12       1.689479711235e-12      -7.133543068399e-15 
  106       3.887283805672e-10       1.171831703775e-13      -3.722322727539e-12       4.611295347310e-16       8.699441098480e-12       1.654124602530e-12      -6.998992680623e-15 
  107       3.930684964726e-10       1.189505036908e-13      -3.809382600582e-12       4.700514581948e-16       8.484272843817e-12       1.619694993977e-12      -6.878591945306e-15 
