# dimensionless total lensed [l(l+1)/2pi] C_l's
# for l=2 to 2500, i.e. number of multipoles equal to 2499
#
# -> if you prefer output in CAMB/HealPix/LensPix units/order, set 'format' to 'camb' in input file
# -> if you don't want to see such a header, set 'headers' to 'no' in input file
# -> for CMB lensing (phi), these are C_l^phi-phi for the lensing potential.
#    Remember the conversion factors:
#    C_l^dd (deflection) = l(l+1) C_l^phi-phi
#    C_l^gg (shear/convergence) = 1/4 (l(l+1))^2 C_l^phi-phi
#
# 1:l     2:TT                     3:EE                     4:TE                     5:BB                     6:phiphi                 7:TPhi                   8:Ephi               
    2       1.544930523953e-10       7.387871863352e-15       4.708971394622e-13       2.359223227609e-19       8.460077491385e-09       5.100267174043e-10      -2.514412253596e-12 
    3       1.457049367536e-10       1.247277787912e-14       5.950812738188e-13       4.720720955273e-19       5.268746214969e-09       3.674290567622e-10      -2.208243262628e-12 
    4       1.366556857342e-10       1.446057286624e-14       6.174977599054e-13       7.872842579730e-19       3.672558914408e-09       2.809196694061e-10      -1.754890812205e-12 
    5       1.293906690529e-10       1.325362720767e-14       5.795492580191e-13       1.181840086477e-18       2.743381751602e-09       2.234885166853e-10      -1.294496556359e-12 
    6       1.239592424890e-10       1.012037363494e-14       5.106084136136e-13       1.656072985213e-18       2.142467932358e-09       1.827936743497e-10      -8.758452756618e-13 
    7       1.200615171159e-10       6.634419706496e-15       4.311317308110e-13       2.210357433397e-18       1.727392061016e-09       1.526658898401e-10      -5.238253916281e-13 
    8       1.174396574324e-10       3.889495197661e-15       3.534544850199e-13       2.845096739496e-18       1.427483695606e-09       1.296360511051e-10      -2.492261352247e-13 
    9       1.157482825373e-10       2.257135908584e-15       2.849504666699e-13       3.560710087359e-18       1.202759658898e-09       1.115685199185e-10      -5.324989507000e-14 
   10       1.148201365261e-10       1.549442149666e-15       2.296964343599e-13       4.357619385824e-18       1.028913500033e-09       9.710419131836e-11       7.011589656257e-14 
   11       1.144836186163e-10       1.348721196315e-15       1.893134998946e-13       5.236236439080e-18       8.667447737794e-10       8.559379549891e-11       1.312838670955e-13 
   12       1.145552176270e-10       1.290320687825e-15       1.636266790446e-13       6.196950939789e-18       7.575530152321e-10       7.574706505141e-11       1.455799624624e-13 
   13       1.150210954299e-10       1.192804897027e-15       1.509330812271e-13       7.240119751226e-18       6.678818424480e-10       6.754075965985e-11       1.270743510327e-13 
   14       1.157603511489e-10       1.042404624483e-15       1.484572316675e-13       8.366057889995e-18       5.932608571011e-10       6.075327240595e-11       8.973184171976e-14 
   15       1.167038152664e-10       9.038627761060e-16       1.530793308019e-13       9.575031549416e-18       5.304419894761e-10       5.488170317944e-11       4.499697774704e-14 
   16       1.178463588486e-10       8.346163970138e-16       1.618234080476e-13       1.086725341843e-17       4.770156611745e-10       4.982497293869e-11       2.265288717449e-15 
   17       1.191139208941e-10       8.448181410200e-16       1.722569763615e-13       1.224288045523e-17       4.311730837630e-10       4.544876466537e-11      -3.220725604796e-14 
   18       1.205138888994e-10       9.020202743498e-16       1.825632349195e-13       1.370201297021e-17       3.913752184151e-10       4.161481417484e-11      -5.516702621708e-14 
   19       1.220497315009e-10       9.745292306913e-16       1.918217573271e-13       1.524470338870e-17       3.569945982347e-10       3.827716034807e-11      -6.609857902788e-14 
   20       1.236545251022e-10       1.032446615959e-15       1.993643407281e-13       1.687094817614e-17       3.267081939452e-10       3.532249236310e-11      -6.630513248442e-14 
   21       1.253349570813e-10       1.082378041981e-15       2.053292284627e-13       1.858071257473e-17       3.000419130586e-10       3.268216030364e-11      -5.821918424351e-14 
   22       1.270875087732e-10       1.145855285995e-15       2.102202038417e-13       2.037392095096e-17       2.763593864963e-10       3.026708098973e-11      -4.540358902326e-14 
   23       1.289048715440e-10       1.241254346095e-15       2.144935366160e-13       2.225048616071e-17       2.553361206282e-10       2.808551697792e-11      -3.080495661560e-14 
   24       1.307598903477e-10       1.384354006766e-15       2.186543258494e-13       2.421029985146e-17       2.364871569829e-10       2.614922249330e-11      -1.741684774733e-14 
   25       1.326684473126e-10       1.573491949847e-15       2.231597635516e-13       2.625326664882e-17       2.195912902936e-10       2.443751653410e-11      -6.962549626385e-15 
   26       1.346402534011e-10       1.800039399725e-15       2.284045949156e-13       2.837929230266e-17       2.043432977562e-10       2.289870906197e-11      -6.439994839240e-16 
   27       1.366585477973e-10       2.058303861375e-15       2.343723560016e-13       3.058831360673e-17       1.905615487255e-10       2.149116693689e-11       1.392304955982e-15 
   28       1.386908152561e-10       2.343288804596e-15       2.408432833616e-13       3.288029081385e-17       1.780099351718e-10       2.017052758332e-11      -4.134163564132e-16 
   29       1.407468637988e-10       2.654638374772e-15       2.474829383552e-13       3.525524195583e-17       1.666246080814e-10       1.894253235353e-11      -5.079989745100e-15 
   30       1.428395503211e-10       2.993298145626e-15       2.538234155576e-13       3.771322368837e-17       1.562831562549e-10       1.782172057103e-11      -1.112842870144e-14 
   31       1.449711120709e-10       3.359605273658e-15       2.593242408306e-13       4.025433113471e-17       1.467745868399e-10       1.681274423056e-11      -1.688709438222e-14 
   32       1.471446615726e-10       3.751460460023e-15       2.636279249631e-13       4.287872049424e-17       1.380502061864e-10       1.590630101680e-11      -2.154773738003e-14 
   33       1.493542253257e-10       4.165374635997e-15       2.663905858841e-13       4.558660312674e-17       1.300489799270e-10       1.507954417640e-11      -2.448310654789e-14 
   34       1.515868860269e-10       4.598461871828e-15       2.672849477539e-13       4.837823939049e-17       1.226596391038e-10       1.430416759085e-11      -2.516306611987e-14 
   35       1.538459460050e-10       5.053959979875e-15       2.662533158090e-13       5.125392006507e-17       1.158444889777e-10       1.357530626304e-11      -2.382977174206e-14 
   36       1.561341040770e-10       5.537724200268e-15       2.633457854544e-13       5.421398612847e-17       1.095488085965e-10       1.289163947871e-11      -2.107370785800e-14 
   37       1.584491374352e-10       6.055698696190e-15       2.586576162493e-13       5.725881400666e-17       1.036906509834e-10       1.224932781956e-11      -1.757945873728e-14 
   38       1.607929898372e-10       6.609926216654e-15       2.523313655259e-13       6.038873315441e-17       9.825499706935e-11       1.164884041911e-11      -1.381674260640e-14 
   39       1.631644706020e-10       7.201259723539e-15       2.445612140172e-13       6.360408638027e-17       9.322478252771e-11       1.108982375387e-11      -1.026183393390e-14 
   40       1.655560064474e-10       7.830416707255e-15       2.355967494288e-13       6.690525487281e-17       8.855226388560e-11       1.056892761225e-11      -7.487827403387e-15 
   41       1.679581405111e-10       8.497908460182e-15       2.256673875704e-13       7.029262045700e-17       8.417568147146e-11       1.008124331376e-11      -6.011429695861e-15 
   42       1.703763214950e-10       9.203826825179e-15       2.147179308129e-13       7.376643205512e-17       8.008220810485e-11       9.625832131448e-12      -5.759329296288e-15 
   43       1.728185082465e-10       9.947969388853e-15       2.025926065686e-13       7.732689962701e-17       7.626098601618e-11       9.201540972261e-12      -6.437929854997e-15 
   44       1.752902272424e-10       1.072987824571e-14       1.891045768031e-13       8.097423001849e-17       7.268423208815e-11       8.805298413956e-12      -7.672390339262e-15 
   45       1.777944932442e-10       1.154905602312e-14       1.740606537593e-13       8.470859084925e-17       6.931717056746e-11       8.433160971917e-12      -9.067753109345e-15 
   46       1.803322130978e-10       1.240572669688e-14       1.573491135208e-13       8.852999041714e-17       6.615454767629e-11       8.084186049597e-12      -1.042617744223e-14 
   47       1.829014189300e-10       1.330027644043e-14       1.388746306034e-13       9.243836108512e-17       6.319274126775e-11       7.757456152284e-12      -1.158594709988e-14 
   48       1.854968081168e-10       1.423304038704e-14       1.185332763110e-13       9.643358934303e-17       6.041874857042e-11       7.450897894231e-12      -1.235959653280e-14 
   49       1.881094707210e-10       1.520430078326e-14       9.621200050049e-14       1.005155132820e-16       5.780948832060e-11       7.161197823944e-12      -1.253260958310e-14 
   50       1.907305188218e-10       1.621427143612e-14       7.182176814597e-14       1.046839173788e-16       5.533876168889e-11       6.884810377681e-12      -1.193864008705e-14 
   51       1.933637682319e-10       1.726305036177e-14       4.540877503535e-14       1.089385210407e-16       5.300198160963e-11       6.621499570423e-12      -1.071226328487e-14 
   52       1.960160279489e-10       1.835065109199e-14       1.707252451729e-14       1.132789825853e-16       5.079694964125e-11       6.371613155735e-12      -9.102581552391e-15 
   53       1.986934122918e-10       1.947701282460e-14      -1.306414858033e-14       1.177048990696e-16       4.871645440088e-11       6.135042517650e-12      -7.404943935418e-15 
   54       2.014012519567e-10       2.064199793190e-14      -4.485401242968e-14       1.222158036374e-16       4.674793411043e-11       5.911189890231e-12      -5.963245883332e-15 
   55       2.041435874751e-10       2.184544964316e-14      -7.816186888149e-14       1.268112175191e-16       4.487731170541e-11       5.699191080777e-12      -5.087008217259e-15 
   56       2.069217059900e-10       2.308738758034e-14      -1.129868845273e-13       1.314908272349e-16       4.310238890524e-11       5.498723528674e-12      -4.773223072133e-15 
   57       2.097350851920e-10       2.436785643350e-14      -1.493687829558e-13       1.362543467668e-16       4.142218844057e-11       5.309341568190e-12      -4.919436679167e-15 
   58       2.125816761474e-10       2.568686989869e-14      -1.873533978759e-13       1.411014662522e-16       3.983290193483e-11       5.130216183423e-12      -5.401917715873e-15 
   59       2.154577980844e-10       2.704441053084e-14      -2.269930684864e-13       1.460318514610e-16       3.832771501769e-11       4.960112182538e-12      -6.074636750071e-15 
   60       2.183580331802e-10       2.844042959665e-14      -2.683470348465e-13       1.510451432722e-16       3.689663243859e-11       4.797365372023e-12      -6.768245683892e-15 
   61       2.212771749049e-10       2.987475724952e-14      -3.114689640770e-13       1.561410345846e-16       3.552925580924e-11       4.640330249909e-12      -7.327269154453e-15 
   62       2.242168221208e-10       3.134680982648e-14      -3.563653627054e-13       1.613195224032e-16       3.422424106434e-11       4.488892151782e-12      -7.733742656166e-15 
   63       2.271800851319e-10       3.285581629082e-14      -4.030284886341e-13       1.665807116658e-16       3.298166315115e-11       4.343255562151e-12      -8.009641625707e-15 
   64       2.301696234727e-10       3.440089917932e-14      -4.514483838870e-13       1.719247446983e-16       3.180017112942e-11       4.203495806165e-12      -8.181306446092e-15 
   65       2.331876058517e-10       3.598107160969e-14      -5.016128616503e-13       1.773518031487e-16       3.067690696955e-11       4.069551153074e-12      -8.279634327178e-15 
   66       2.362356700964e-10       3.759523428807e-14      -5.535074933135e-13       1.828621099215e-16       2.960742435075e-11       3.941214919679e-12      -8.340271186154e-15 
   67       2.393148830969e-10       3.924217251645e-14      -6.071155955112e-13       1.884559311108e-16       2.858560745927e-11       3.818127573797e-12      -8.403803528044e-15 
   68       2.424259779150e-10       4.092069247984e-14      -6.624186661626e-13       1.941335651423e-16       2.760530524303e-11       3.699900905629e-12      -8.506958641030e-15 
   69       2.455702104339e-10       4.263006886428e-14      -7.193978241579e-13       1.998953033181e-16       2.666580021632e-11       3.586537409791e-12      -8.653705730833e-15 
   70       2.487486051280e-10       4.436968297881e-14      -7.780326394509e-13       2.057414647143e-16       2.576730699587e-11       3.478082085872e-12      -8.838616913236e-15 
   71       2.519616608811e-10       4.613889206031e-14      -8.383007084218e-13       2.116724098448e-16       2.490931823159e-11       3.374493451495e-12      -9.055303389032e-15 
   72       2.552093180192e-10       4.793702984303e-14      -9.001776524021e-13       2.176885422676e-16       2.409056727832e-11       3.275639023459e-12      -9.296377358151e-15 
   73       2.584909253433e-10       4.976340712825e-14      -9.636371161986e-13       2.237903101921e-16       2.330899086756e-11       3.181290798902e-12      -9.553413933779e-15 
   74       2.618052071629e-10       5.161731235389e-14      -1.028650766618e-12       2.299782080853e-16       2.256169177920e-11       3.091120736448e-12      -9.816913056486e-15 
   75       2.651502303282e-10       5.349801216410e-14      -1.095188290992e-12       2.362527782789e-16       2.184490151330e-11       3.004696237361e-12      -1.007626140834e-14 
   76       2.685241202746e-10       5.540458386744e-14      -1.163214805265e-12       2.426145145289e-16       2.115491610732e-11       2.921585671694e-12      -1.032130143423e-14 
   77       2.719274327768e-10       5.733537628021e-14      -1.232682535851e-12       2.490635488392e-16       2.049118311719e-11       2.841707161789e-12      -1.054745291583e-14 
   78       2.753611568102e-10       5.928845114340e-14      -1.303537611196e-12       2.555999101827e-16       1.985371235960e-11       2.765035486794e-12      -1.075146048612e-14 
   79       2.788259865856e-10       6.126173968085e-14      -1.375722463937e-12       2.622236170847e-16       1.924213561379e-11       2.691495454399e-12      -1.092986432816e-14 
   80       2.823223039406e-10       6.325303972160e-14      -1.449175776306e-12       2.689346772190e-16       1.865568924836e-11       2.620959638549e-12      -1.107899504429e-14 
   81       2.858501607324e-10       6.526001282225e-14      -1.523832425539e-12       2.757330870045e-16       1.809319684823e-11       2.553246117161e-12      -1.119496852527e-14 
   82       2.894092612290e-10       6.728018138933e-14      -1.599623429275e-12       2.826188312009e-16       1.755305184146e-11       2.488116209837e-12      -1.127368081943e-14 
   83       2.929989445018e-10       6.931092580160e-14      -1.676475890970e-12       2.895918825055e-16       1.703320012616e-11       2.425272215579e-12      -1.131080300184e-14 
   84       2.966185429178e-10       7.134974670254e-14      -1.754320739032e-12       2.966522172289e-16       1.653163952512e-11       2.364430478256e-12      -1.130298125227e-14 
   85       3.002685644717e-10       7.339510814155e-14      -1.833117537969e-12       3.037998661934e-16       1.604805133935e-11       2.305559455717e-12      -1.125167691435e-14 
   86       3.039496750876e-10       7.544572958155e-14      -1.912833709434e-12       3.110348715717e-16       1.558240867640e-11       2.248677153204e-12      -1.115995658962e-14 
   87       3.076623288247e-10       7.750033471217e-14      -1.993437179459e-12       3.183572714256e-16       1.513447511219e-11       2.193778323068e-12      -1.103135843156e-14 
   88       3.114067565902e-10       7.955765302876e-14      -2.074896454852e-12       3.257670995724e-16       1.470379600402e-11       2.140833468493e-12      -1.086990727041e-14 
   89       3.151829548529e-10       8.161642141136e-14      -2.157180699587e-12       3.332643854512e-16       1.428968980368e-11       2.089787847226e-12      -1.068012973790e-14 
   90       3.189906743553e-10       8.367538570370e-14      -2.240259811198e-12       3.408491539899e-16       1.389123937050e-11       2.040560475303e-12      -1.046706939204e-14 
   91       3.228294088277e-10       8.573330229216e-14      -2.324104497169e-12       3.485214254711e-16       1.350728328438e-11       1.993043130778e-12      -1.023630184188e-14 
   92       3.266983837002e-10       8.778893968481e-14      -2.408686351329e-12       3.562812153989e-16       1.313640715888e-11       1.947099357447e-12      -9.993949872258e-15 
   93       3.305968219696e-10       8.984096028222e-14      -2.493970498875e-12       3.641286498021e-16       1.277727927614e-11       1.902597373857e-12      -9.745772460794e-15 
   94       3.345248120535e-10       9.188754191981e-14      -2.579892100132e-12       3.720643312709e-16       1.242973410376e-11       1.859516626029e-12      -9.494242248786e-15 
   95       3.384825502007e-10       9.392670206002e-14      -2.666376437756e-12       3.800890279814e-16       1.209383643593e-11       1.817855492831e-12      -9.241054440652e-15 
   96       3.424700675847e-10       9.595641246401e-14      -2.753346007959e-12       3.882035645957e-16       1.176954768427e-11       1.777598284859e-12      -8.988016127012e-15 
   97       3.464872228222e-10       9.797459912605e-14      -2.840720494892e-12       3.964088237129e-16       1.145672191733e-11       1.738714713580e-12      -8.737048696932e-15 
   98       3.505336944898e-10       9.997914220799e-14      -2.928416745028e-12       4.047057473202e-16       1.115510190014e-11       1.701159360468e-12      -8.490190250155e-15 
   99       3.546089736420e-10       1.019678759736e-13      -3.016348741550e-12       4.130953382442e-16       1.086431513364e-11       1.664871146145e-12      -8.249598009344e-15 
  100       3.587123563281e-10       1.039385887229e-13      -3.104427578726e-12       4.215786616014e-16       1.058386989428e-11       1.629772799524e-12      -8.017550732317e-15 
  101       3.628429361101e-10       1.058890227269e-13      -3.192561436302e-12       4.301568462499e-16       1.031315127347e-11       1.595770326941e-12      -7.796451124285e-15 
  102       3.669995965800e-10       1.078168741615e-13      -3.280655553877e-12       4.388310862399e-16       1.005141721710e-11       1.562752481304e-12      -7.588828250092e-15 
  103       3.711810038771e-10       1.097197930423e-13      -3.368612205293e-12       4.476026422652e-16       9.797794565050e-12       1.530590231225e-12      -7.397339946449e-15 
  104       3.753858846952e-10       1.115954969685e-13      -3.456336867660e-12       4.564727109658e-16       9.551477015919e-12       1.499166834029e-12      -7.224157070132e-15 
  105       3.796139191895e-10       1.134421299963e-13      -3.543757732696e-12       4.654420096044e-16       9.312358007540e-12       1.468473824775e-12      -7.069016315920e-15 
  106       3.838649553005e-10       1.152579523472e-13      -3.630808795599e-12       4.745111377298e-16       9.080476343895e-12       1.438527064640e-12      -6.930907635337e-15 
  107       3.881387297419e-10       1.170412320988e-13      -3.717423937711e-12       4.836807043139e-16       8.855820183786e-12       1.409337102756e-12      -6.808664584026e-15 
