# dimensionless total lensed [l(l+1)/2pi] C_l's
# for l=2 to 2500, i.e. number of multipoles equal to 2499
#
# -> if you prefer output in CAMB/HealPix/LensPix units/order, set 'format' to 'camb' in input file
# -> if you don't want to see such a header, set 'headers' to 'no' in input file
# -> for CMB lensing (phi), these are C_l^phi-phi for the lensing potential.
#    Remember the conversion factors:
#    C_l^dd (deflection) = l(l+1) C_l^phi-phi
#    C_l^gg (shear/convergence) = 1/4 (l(l+1))^2 C_l^phi-phi
#
# 1:l     2:TT                     3:EE                     4:TE                     5:BB                     6:phiphi                 7:TPhi                   8:Ephi               
    2       1.686980041499e-10       6.642485126914e-15       3.878136127065e-13       1.722938042322e-19       6.206906390885e-09       4.878039771764e-10      -2.254035653470e-12 
    3       1.665564154955e-10       1.110530817184e-14       4.417703055393e-13       3.447184223161e-19       3.707573550968e-09       3.813125782120e-10      -1.934371679449e-12 
    4       1.606937155531e-10       1.249228404744e-14       4.370821959989e-13       5.748173896806e-19       2.533534631732e-09       3.086434369485e-10      -1.473616255698e-12 
    5       1.545353690613e-10       1.094512360788e-14       4.119768012899e-13       8.627541023715e-19       1.870464486396e-09       2.563305878635e-10      -1.012522286732e-12 
    6       1.490601039356e-10       7.927796432522e-15       3.836759615204e-13       1.208723655726e-18       1.450206924169e-09       2.170328459824e-10      -6.025256020018e-13 
    7       1.444910861893e-10       4.993480471939e-15       3.586540888973e-13       1.612947243705e-18       1.163714431002e-09       1.865372309020e-10      -2.686398028980e-13 
    8       1.408254580192e-10       3.025658491396e-15       3.369205011819e-13       2.075665911947e-18       9.579002364997e-10       1.623065276235e-10      -2.020010377109e-14 
    9       1.380695680903e-10       2.124236538077e-15       3.164621471717e-13       2.597133892007e-18       8.040380391898e-10       1.427427103080e-10       1.443216859731e-13 
   10       1.360639253452e-10       1.904358312273e-15       2.958064239617e-13       3.177611758124e-18       6.854404896917e-10       1.267279555150e-10       2.342926394284e-13 
   11       1.347220027265e-10       1.892446563325e-15       2.747455410624e-13       3.817359652355e-18       5.794812773067e-10       1.138301944867e-10       2.633840497700e-13 
   12       1.339223277459e-10       1.789445111019e-15       2.539428066139e-13       4.516630819056e-18       5.056753215865e-10       1.025095537895e-10       2.499959941758e-13 
   13       1.336209635303e-10       1.531024763340e-15       2.344698308705e-13       5.275665675460e-18       4.452493029711e-10       9.284556301767e-11       2.093671501328e-13 
   14       1.336890712406e-10       1.203980695985e-15       2.174924083624e-13       6.094686622328e-18       3.950939492400e-10       8.469412891246e-11       1.565145240872e-13 
   15       1.340762566615e-10       9.249247217665e-16       2.040561852838e-13       6.973893768020e-18       3.529661712524e-10       7.768249873774e-11       1.030652557336e-13 
   16       1.347237749432e-10       7.604518418460e-16       1.949389998465e-13       7.913461702258e-18       3.172083843046e-10       7.145605496693e-11       5.703946979507e-14 
   17       1.356023052458e-10       7.119781363573e-16       1.904486534242e-13       8.913537413627e-18       2.865750408400e-10       6.595313594991e-11       2.319530819158e-14 
   18       1.366133472102e-10       7.415775315770e-16       1.903645087331e-13       9.974238854525e-18       2.600176684779e-10       6.108164970726e-11       2.963041239390e-15 
   19       1.377765307616e-10       8.230401691660e-16       1.941916632999e-13       1.109565796854e-17       2.371022647040e-10       5.677731349845e-11      -4.711788171431e-15 
   20       1.390831128185e-10       9.322133260937e-16       2.009015351559e-13       1.227785616305e-17       2.169362911710e-10       5.288854770782e-11      -2.847321610617e-15 
   21       1.405213714249e-10       1.070246707153e-15       2.095780850232e-13       1.352087492008e-17       1.991969861146e-10       4.939134927050e-11       5.280542736268e-15 
   22       1.420415470681e-10       1.245005898813e-15       2.190934890999e-13       1.482473054371e-17       1.834539954568e-10       4.624477116919e-11       1.561574535639e-14 
   23       1.436609367061e-10       1.453698872386e-15       2.285584100433e-13       1.618942749089e-17       1.694877537264e-10       4.340119636937e-11       2.526102546736e-14 
   24       1.453862224353e-10       1.688492214420e-15       2.371069804260e-13       1.761495307607e-17       1.569726928125e-10       4.078088958287e-11       3.163621419364e-14 
   25       1.471956725930e-10       1.942110941929e-15       2.443988506509e-13       1.910129385096e-17       1.457603110404e-10       3.837778857257e-11       3.387219097860e-14 
   26       1.490442385894e-10       2.208630621908e-15       2.502854285982e-13       2.064842905674e-17       1.356464649547e-10       3.618601262259e-11       3.190239068829e-14 
   27       1.509463072079e-10       2.493438587286e-15       2.547956372275e-13       2.225634547371e-17       1.265086211250e-10       3.419045134668e-11       2.660144418526e-14 
   28       1.529204215796e-10       2.805564246530e-15       2.580471369813e-13       2.392503329958e-17       1.181879417934e-10       3.235978667959e-11       1.934079881071e-14 
   29       1.549714089542e-10       3.149080717647e-15       2.601748689263e-13       2.565450550756e-17       1.106416113176e-10       3.068606826229e-11       1.129746258705e-14 
   30       1.570819792275e-10       3.526753407899e-15       2.613602489212e-13       2.744478572907e-17       1.037884728341e-10       2.915198432695e-11       3.835802432235e-15 
   31       1.592217288612e-10       3.940962677491e-15       2.617789675248e-13       2.929590873260e-17       9.748853392169e-11       2.772642923537e-11      -1.647041811605e-15 
   32       1.613945817562e-10       4.391608677885e-15       2.613701075753e-13       3.120793811768e-17       9.170917069870e-11       2.639962173062e-11      -4.852668844502e-15 
   33       1.636059749002e-10       4.877343970722e-15       2.599772917922e-13       3.318095856514e-17       8.640940392538e-11       2.515836201606e-11      -5.878751481164e-15 
   34       1.658536416193e-10       5.396826927410e-15       2.574240047667e-13       3.521507320444e-17       8.151492662367e-11       2.398328719877e-11      -4.982690980165e-15 
   35       1.681434738665e-10       5.951403973956e-15       2.535802854434e-13       3.731040309084e-17       7.700063977766e-11       2.287569664031e-11      -2.738112432140e-15 
   36       1.704772323336e-10       6.543361659537e-15       2.483158947620e-13       3.946709100106e-17       7.283028752691e-11       2.183874695067e-11       4.318425741566e-17 
   37       1.728508060870e-10       7.174766676177e-15       2.414950848277e-13       4.168529527896e-17       6.894956991886e-11       2.087116747296e-11       2.505303400064e-15 
   38       1.752661565277e-10       7.845851316149e-15       2.330242645349e-13       4.396516131605e-17       6.534854257276e-11       1.997201866092e-11       4.324349092058e-15 
   39       1.777218829959e-10       8.556078873071e-15       2.228187543583e-13       4.630684327897e-17       6.201590475947e-11       1.913661059930e-11       5.313071090056e-15 
   40       1.802090749742e-10       9.304546326680e-15       2.107895493739e-13       4.871051341152e-17       5.892002211476e-11       1.835460750956e-11       5.265737963668e-15 
   41       1.827162536941e-10       1.009053260757e-14       1.968610746701e-13       5.117634694506e-17       5.601996895471e-11       1.761354542384e-11       4.057524336591e-15 
   42       1.852479163243e-10       1.091541315381e-14       1.810322757754e-13       5.370446779959e-17       5.330724471524e-11       1.691192969804e-11       1.983119158039e-15 
   43       1.878107789842e-10       1.178133002230e-14       1.633348042137e-13       5.629498739257e-17       5.077465052533e-11       1.624958389809e-11      -4.727287930924e-16 
   44       1.904082685532e-10       1.269069053859e-14       1.438174820200e-13       5.894801967072e-17       4.840376699823e-11       1.562380803477e-11      -2.719598423588e-15 
   45       1.930413601142e-10       1.364567790135e-14       1.225270919440e-13       6.166366404776e-17       4.617154259372e-11       1.503064215059e-11      -4.201011711073e-15 
   46       1.957122178296e-10       1.464657015355e-14       9.944182413527e-14       6.444194774814e-17       4.407451286487e-11       1.446960319532e-11      -4.877712237030e-15 
   47       1.984210434152e-10       1.569294634704e-14       7.451943085163e-14       6.728286650558e-17       4.211030205293e-11       1.394000651363e-11      -4.878286535891e-15 
   48       2.011647046448e-10       1.678413608342e-14       4.771532055777e-14       7.018639948670e-17       4.027031935390e-11       1.343949268580e-11      -4.367993218076e-15 
   49       2.039364516502e-10       1.791920667405e-14       1.898228165179e-14       7.315250846299e-17       3.853929637317e-11       1.296390208415e-11      -3.550941288222e-15 
   50       2.067289229845e-10       1.909715601046e-14      -1.172214721337e-14       7.618113173711e-17       3.689989764089e-11       1.250863836945e-11      -2.639722108146e-15 
   51       2.095447839353e-10       2.031758268328e-14      -4.441056670835e-14       7.927216589868e-17       3.534910062798e-11       1.207348632803e-11      -1.749533815573e-15 
   52       2.123884854696e-10       2.158017556465e-14      -7.908448886457e-14       8.242547768519e-17       3.388546236241e-11       1.165888494518e-11      -9.790835322946e-16 
   53       2.152631010234e-10       2.288452091097e-14      -1.157413063673e-13       8.564090774574e-17       3.250421646374e-11       1.126449870123e-11      -4.412533157205e-16 
   54       2.181701976153e-10       2.423009920332e-14      -1.543742089894e-13       8.891826956630e-17       3.119704933010e-11       1.088916219573e-11      -2.637468839215e-16 
   55       2.211104188293e-10       2.561641664553e-14      -1.949733648014e-13       9.225736837306e-17       2.995464284726e-11       1.053132250059e-11      -5.490285122236e-16 
   56       2.240856986290e-10       2.704344515085e-14      -2.375299988691e-13       9.565806580408e-17       2.877555494839e-11       1.019062176507e-11      -1.241003995542e-15 
   57       2.270973717464e-10       2.851128612317e-14      -2.820331814195e-13       9.912022942093e-17       2.765915314983e-11       9.866610768789e-12      -2.226353164693e-15 
   58       2.301454110451e-10       3.002004741713e-14      -3.284686182945e-13       1.026437138481e-16       2.660292781490e-11       9.558250437873e-12      -3.371417152215e-15 
   59       2.332283263681e-10       3.156984542500e-14      -3.768186166621e-13       1.062283604767e-16       2.560237612736e-11       9.263875861187e-12      -4.521259098124e-15 
   60       2.363430633861e-10       3.316080716343e-14      -4.270620507268e-13       1.098739971678e-16       2.465088606504e-11       8.981160306577e-12      -5.498724855660e-15 
   61       2.394864698162e-10       3.479289204883e-14      -4.791794802988e-13       1.135804736639e-16       2.374157730472e-11       8.707781970059e-12      -6.148076975792e-15 
   62       2.426603074973e-10       3.646530575483e-14      -5.331699266478e-13       1.173477777806e-16       2.287356928351e-11       8.443680514309e-12      -6.479466601020e-15 
   63       2.458671909527e-10       3.817695789313e-14      -5.890378184593e-13       1.211759448877e-16       2.204692058304e-11       8.189245485719e-12      -6.555370624925e-15 
   64       2.491090688907e-10       3.992662715314e-14      -6.467882979014e-13       1.250650253237e-16       2.126074328236e-11       7.944644860857e-12      -6.449345519730e-15 
   65       2.523871727836e-10       4.171295766756e-14      -7.064273498315e-13       1.290150852318e-16       2.051314902341e-11       7.709811359892e-12      -6.246502318483e-15 
   66       2.557019654479e-10       4.353445537813e-14      -7.679619310036e-13       1.330262073968e-16       1.980119507649e-11       7.484428760013e-12      -6.043981597231e-15 
   67       2.590530896231e-10       4.538948440129e-14      -8.314000992754e-13       1.370984920813e-16       1.912083040583e-11       7.267918208850e-12      -5.951428457204e-15 
   68       2.624399393788e-10       4.727638910463e-14      -8.967400171328e-13       1.412320629899e-16       1.846798025197e-11       7.059636258577e-12      -6.064596088823e-15 
   69       2.658636237216e-10       4.919389718394e-14      -9.639340860438e-13       1.454270846925e-16       1.784217563466e-11       6.859546158007e-12      -6.378883812746e-15 
   70       2.693253103207e-10       5.114079210659e-14      -1.032917743503e-12       1.496837502505e-16       1.724356577156e-11       6.667658619758e-12      -6.859052353107e-15 
   71       2.728256030299e-10       5.311579421556e-14      -1.103619793153e-12       1.540022773521e-16       1.667182026058e-11       6.483824011259e-12      -7.464336680093e-15 
   72       2.763645063960e-10       5.511756031019e-14      -1.175962249445e-12       1.583829092801e-16       1.612610426344e-11       6.307724083027e-12      -8.148233743573e-15 
   73       2.799413901678e-10       5.714468322701e-14      -1.249860182304e-12       1.628259158797e-16       1.560505368925e-11       6.138863696933e-12      -8.858290206736e-15 
   74       2.835549538039e-10       5.919569142050e-14      -1.325221561788e-12       1.673315945262e-16       1.510675037807e-11       5.976562554483e-12      -9.535890179719e-15 
   75       2.872031909823e-10       6.126904854390e-14      -1.401947102756e-12       1.719002710925e-16       1.462869728452e-11       5.819946925083e-12      -1.011604295324e-14 
   76       2.908841678859e-10       6.336311001148e-14      -1.479943727786e-12       1.765322637245e-16       1.416843978705e-11       5.668174112140e-12      -1.054225624087e-14 
   77       2.945986003665e-10       6.547598446726e-14      -1.559168133621e-12       1.812277644020e-16       1.372561527512e-11       5.521171392233e-12      -1.081475633510e-14 
   78       2.983476844420e-10       6.760564617551e-14      -1.639590923972e-12       1.859869374375e-16       1.330023396419e-11       5.379017423051e-12      -1.095071633729e-14 
   79       3.021323057105e-10       6.974997451779e-14      -1.721183817958e-12       1.908099549546e-16       1.289205454700e-11       5.241718017056e-12      -1.097004623041e-14 
   80       3.059530205460e-10       7.190675269171e-14      -1.803919774026e-12       1.956969970926e-16       1.250057262656e-11       5.109202642229e-12      -1.089548995319e-14 
   81       3.098100372940e-10       7.407366640951e-14      -1.887773113865e-12       2.006482522117e-16       1.212500914898e-11       4.981320922827e-12      -1.075272247437e-14 
   82       3.137031974677e-10       7.624830259677e-14      -1.972719646322e-12       2.056639170979e-16       1.176429883642e-11       4.857839140130e-12      -1.057044686688e-14 
   83       3.176319569431e-10       7.842814809105e-14      -2.058736791320e-12       2.107441971686e-16       1.141707862002e-11       4.738436733190e-12      -1.038049138206e-14 
   84       3.215956868065e-10       8.061071877734e-14      -2.145794666331e-12       2.158893007791e-16       1.108201978961e-11       4.622792010709e-12      -1.021114505757e-14 
   85       3.255946743890e-10       8.279397444211e-14      -2.233827376556e-12       2.210994206121e-16       1.075891304706e-11       4.510863277759e-12      -1.006568249443e-14 
   86       3.296292544775e-10       8.497597062714e-14      -2.322757170331e-12       2.263747495651e-16       1.044774296048e-11       4.402648114902e-12      -9.940440370833e-15 
   87       3.336994911837e-10       8.715473518520e-14      -2.412503025832e-12       2.317154864775e-16       1.014835453565e-11       4.298096340349e-12      -9.831246051841e-15 
   88       3.378051645125e-10       8.932826917097e-14      -2.502980623107e-12       2.371218362372e-16       9.860447425694e-12       4.197108010051e-12      -9.733401025541e-15 
   89       3.419457569302e-10       9.149454773190e-14      -2.594102316096e-12       2.425940098860e-16       9.583570140722e-12       4.099531417802e-12      -9.641664339137e-15 
   90       3.461204399323e-10       9.365152099912e-14      -2.685777104662e-12       2.481322247257e-16       9.317114257516e-12       4.005161095331e-12      -9.550236035077e-15 
   91       3.503280606116e-10       9.579711497823e-14      -2.777910606617e-12       2.537367044240e-16       9.060308629182e-12       3.913735812403e-12      -9.452740587168e-15 
   92       3.545671282261e-10       9.792923244029e-14      -2.870405029745e-12       2.594076791204e-16       8.812213594811e-12       3.824936576911e-12      -9.342210336693e-15 
   93       3.588362082721e-10       1.000457458112e-13      -2.963163984715e-12       2.651454258336e-16       8.571944406837e-12       3.738466570166e-12      -9.212792521326e-15 
   94       3.631352016747e-10       1.021444726822e-13      -3.056107812599e-12       2.709503964055e-16       8.339392529065e-12       3.654309048926e-12      -9.065200021718e-15 
   95       3.674642340483e-10       1.042231982459e-13      -3.149160521616e-12       2.768231090850e-16       8.114602620941e-12       3.572504714712e-12      -8.902053597169e-15 
   96       3.718232576010e-10       1.062796837405e-13      -3.242245189617e-12       2.827641105923e-16       7.897550377459e-12       3.493072371288e-12      -8.726238338469e-15 
   97       3.762120432967e-10       1.083116672306e-13      -3.335284002561e-12       2.887739767768e-16       7.688139885263e-12       3.416008049471e-12      -8.540910763498e-15 
   98       3.806301730164e-10       1.103168643883e-13      -3.428198292988e-12       2.948533132772e-16       7.486200978740e-12       3.341284131933e-12      -8.349505912819e-15 
   99       3.850770317205e-10       1.122929692743e-13      -3.520908578501e-12       3.010027561803e-16       7.291486596118e-12       3.268848478015e-12      -8.155744445266e-15 
  100       3.895517996102e-10       1.142376551186e-13      -3.613334600238e-12       3.072229726799e-16       7.103670135562e-12       3.198623548532e-12      -7.963639733545e-15 
  101       3.940534442894e-10       1.161485751021e-13      -3.705395361348e-12       3.135146617363e-16       6.922342811269e-12       3.130505530582e-12      -7.777504959820e-15 
  102       3.985807129268e-10       1.180233631372e-13      -3.797009165472e-12       3.198785547350e-16       6.747011009568e-12       3.064363462353e-12      -7.601960211310e-15 
  103       4.031321244169e-10       1.198596346491e-13      -3.888093655215e-12       3.263154161463e-16       6.577093645014e-12       3.000038357929e-12      -7.441939575884e-15 
  104       4.077062347220e-10       1.216550679468e-13      -3.978565592244e-12       3.328259961824e-16       6.412054112843e-12       2.937381626896e-12      -7.301576928475e-15 
  105       4.123024905974e-10       1.234076591739e-13      -4.068340080869e-12       3.394108800666e-16       6.251822141280e-12       2.876378128877e-12      -7.180676590051e-15 
  106       4.169204771164e-10       1.251155034141e-13      -4.157331310821e-12       3.460706195369e-16       6.096424261624e-12       2.817038187644e-12      -7.077776914858e-15 
  107       4.215596500106e-10       1.267767188238e-13      -4.245452841474e-12       3.528057791590e-16       5.945853149896e-12       2.759359342693e-12      -6.991223861945e-15 
