# Matter power spectrum P(k) at redshift z=0
# for k=1.05361e-05 to 1.71804 h/Mpc,
# number of wavenumbers equal to 606
#    1:k (h/Mpc)              2:P (Mpc/h)^3        
       1.053614334937e-05       5.070452098618e+01 
       2.343529760997e-05       1.094035662611e+02 
       3.638013355907e-05       1.670283503335e+02 
       4.940557968177e-05       2.242318320325e+02 
       6.254714549165e-05       2.813860348989e+02 
       7.584123905139e-05       3.387697315646e+02 
       8.932549469623e-05       3.966210221774e+02 
       1.030391153296e-04       4.551589717995e+02 
       1.170232336936e-04       5.145945420907e+02 
       1.313212970506e-04       5.751371881894e+02 
       1.459794797172e-04       6.369993904272e+02 
       1.610471278317e-04       7.004000647556e+02 
       1.765772405492e-04       7.655674497949e+02 
       1.926269914833e-04       8.327416677980e+02 
       2.092582935372e-04       9.021770745496e+02 
       2.265384091684e-04       9.741445994559e+02 
       2.445406064254e-04       1.048933928809e+03 
       2.633448585741e-04       1.126855743329e+03 
       2.830385815011e-04       1.208243804989e+03 
       3.037173980160e-04       1.293457010157e+03 
       3.254859112916e-04       1.382881218207e+03 
       3.484584605548e-04       1.476930850102e+03 
       3.727598204143e-04       1.576050037361e+03 
       3.985257906115e-04       1.680713195833e+03 
       4.259036055541e-04       1.791424786814e+03 
       4.550520733069e-04       1.908717945748e+03 
       4.861413331642e-04       2.033151662839e+03 
       5.193521021791e-04       2.165306144707e+03 
       5.548742682928e-04       2.305775866217e+03 
       5.929046870245e-04       2.455160041944e+03 
       6.336440575860e-04       2.614049972104e+03 
       6.772928008109e-04       2.783013375124e+03 
       7.240459418237e-04       2.962575429824e+03 
       7.740871163916e-04       3.153197308933e+03 
       8.275819641251e-04       3.355253040066e+03 
       8.846713250726e-04       3.569006129402e+03 
       9.454647880096e-04       3.794587996320e+03 
       1.010035211397e-03       4.031980513060e+03 
       1.078414818071e-03       4.281004549974e+03 
       1.150593336089e-03       4.541317097288e+03 
       1.226518432665e-03       4.812416598684e+03 
       1.306098406920e-03       5.093657585512e+03 
       1.389206830260e-03       5.384249599733e+03 
       1.475688609891e-03       5.683331690472e+03 
       1.565366840743e-03       5.989992486439e+03 
       1.658049812979e-03       6.303266494243e+03 
       1.753537636303e-03       6.622178754097e+03 
       1.851628091588e-03       6.945767927243e+03 
       1.952121484915e-03       7.273105199814e+03 
       2.054824427494e-03       7.603308295537e+03 
       2.159552578915e-03       7.935551435130e+03 
       2.266132465436e-03       8.269071609086e+03 
       2.374402523048e-03       8.603170713704e+03 
       2.484213525284e-03       8.937216274161e+03 
       2.595428547313e-03       9.270638785787e+03 
       2.707922599046e-03       9.602929734289e+03 
       2.821582036899e-03       9.933637474063e+03 
       2.936303840627e-03       1.026236320383e+04 
       3.051994820529e-03       1.058875607569e+04 
       3.168570802440e-03       1.091250843063e+04 
       3.285955823474e-03       1.123335414771e+04 
       3.404081360312e-03       1.155105918632e+04 
       3.522885603364e-03       1.186542429877e+04 
       3.642312784087e-03       1.217627526549e+04 
       3.762312558368e-03       1.248346482718e+04 
       3.882839445997e-03       1.278686654207e+04 
       4.003852324307e-03       1.308637197211e+04 
       4.125313972930e-03       1.338189429732e+04 
       4.247190665939e-03       1.367335654368e+04 
       4.369451807397e-03       1.396069891496e+04 
       4.492069606288e-03       1.424387258569e+04 
       4.615018786939e-03       1.452284039835e+04 
       4.738276331232e-03       1.479757260415e+04 
       4.861821249207e-03       1.506804633173e+04 
       4.985634374929e-03       1.533425539804e+04 
       5.109698184796e-03       1.559618979900e+04 
       5.233996635732e-03       1.585385182819e+04 
       5.358515021018e-03       1.610724434226e+04 
       5.483239841725e-03       1.635637997135e+04 
       5.608158691959e-03       1.660127535570e+04 
       5.733260156339e-03       1.684194073257e+04 
       5.858533718309e-03       1.707840256242e+04 
       5.983969678033e-03       1.731068322348e+04 
       6.109559078808e-03       1.753880327231e+04 
       6.235293641018e-03       1.776279762962e+04 
       6.361165702785e-03       1.798269068172e+04 
       6.487168166586e-03       1.819851178925e+04 
       6.613294451155e-03       1.841029701077e+04 
       6.739538448114e-03       1.861808480990e+04 
       6.865894482812e-03       1.882190719431e+04 
       6.992357278908e-03       1.902177863678e+04 
       7.118921926327e-03       1.921774810743e+04 
       7.245583852206e-03       1.940980013779e+04 
       7.372338794536e-03       1.959807743929e+04 
       7.499182778219e-03       1.978255803274e+04 
       7.626112093286e-03       1.996327476808e+04 
       7.753123275067e-03       2.014025964667e+04 
       7.880213086112e-03       2.031355184615e+04 
       8.007378499697e-03       2.048318571782e+04 
       8.134616684750e-03       2.064923651530e+04 
       8.261924992066e-03       2.081173579585e+04 
       8.389300941696e-03       2.097069651122e+04 
       8.516742211374e-03       2.112617832316e+04 
       8.644246625917e-03       2.127821550270e+04 
       8.771812147483e-03       2.142681314043e+04 
       8.899436866623e-03       2.157203777095e+04 
       9.027118994042e-03       2.171390877618e+04 
       9.154856853027e-03       2.185242800444e+04 
       9.282648872458e-03       2.198772690465e+04 
       9.410493580364e-03       2.211978736403e+04 
       9.538389597987e-03       2.224864642450e+04 
       9.666335634282e-03       2.237433909581e+04 
       9.794330480849e-03       2.249691027904e+04 
       9.922373007235e-03       2.261637939978e+04 
       1.005046215659e-02       2.273279196683e+04 
       1.017859694165e-02       2.284617843988e+04 
       1.030677644100e-02       2.295657335972e+04 
       1.043499979561e-02       2.306402212661e+04 
       1.056326620565e-02       2.316855397659e+04 
       1.069157492750e-02       2.327018776239e+04 
       1.081992527097e-02       2.336897563079e+04 
       1.094831659677e-02       2.346493720072e+04 
       1.107674831409e-02       2.355811826938e+04 
       1.120521987840e-02       2.364853251251e+04 
       1.133373078938e-02       2.373622106791e+04 
       1.146228058901e-02       2.382122233064e+04 
       1.159086885977e-02       2.390356133851e+04 
       1.171949522301e-02       2.398326683259e+04 
       1.184815933738e-02       2.406038185931e+04 
       1.197686089741e-02       2.413491148402e+04 
       1.210559963215e-02       2.420690253037e+04 
       1.223437530397e-02       2.427638981349e+04 
       1.236318770739e-02       2.434340218553e+04 
       1.249203666797e-02       2.440795306993e+04 
       1.262092204139e-02       2.447009310038e+04 
       1.274984371244e-02       2.452983124400e+04 
       1.287880159424e-02       2.458720714925e+04 
       1.300779562739e-02       2.464226789248e+04 
       1.313682577929e-02       2.469499880931e+04 
       1.326589204339e-02       2.474545990065e+04 
       1.339499443864e-02       2.479367281056e+04 
       1.352413300885e-02       2.483965979162e+04 
       1.365330782219e-02       2.488344846996e+04 
       1.378251897073e-02       2.492506770919e+04 
       1.391176656994e-02       2.496454457883e+04 
       1.404105075830e-02       2.500191086247e+04 
       1.417037169698e-02       2.503716902996e+04 
       1.429972956945e-02       2.507037643380e+04 
       1.442912458120e-02       2.510153998463e+04 
       1.455855695949e-02       2.513067916123e+04 
       1.468802695311e-02       2.515783669964e+04 
       1.481753483215e-02       2.518303099873e+04 
       1.494708088787e-02       2.520629321397e+04 
       1.507666543249e-02       2.522763813829e+04 
       1.520628879913e-02       2.524709499952e+04 
       1.533595134164e-02       2.526469369751e+04 
       1.546565343460e-02       2.528045491273e+04 
       1.559539547321e-02       2.529440664545e+04 
       1.572517787328e-02       2.530657602467e+04 
       1.585500107124e-02       2.531696862723e+04 
       1.598486552411e-02       2.532562764065e+04 
       1.611477170958e-02       2.533255622781e+04 
       1.624472012604e-02       2.533778325575e+04 
       1.637471129264e-02       2.534133587253e+04 
       1.650474574940e-02       2.534323458327e+04 
       1.663482405732e-02       2.534350475747e+04 
       1.676494679852e-02       2.534215865512e+04 
       1.689511457633e-02       2.533923378952e+04 
       1.702532801554e-02       2.533474728476e+04 
       1.715558776250e-02       2.532871906755e+04 
       1.728589448536e-02       2.532117491043e+04 
       1.741624887429e-02       2.531213436030e+04 
       1.754665164171e-02       2.530160637872e+04 
       1.767710352249e-02       2.528961825063e+04 
       1.780760527429e-02       2.527621511518e+04 
       1.793815767781e-02       2.526139321418e+04 
       1.806876153705e-02       2.524517692504e+04 
       1.819941767971e-02       2.522758730815e+04 
       1.833012695743e-02       2.520864502371e+04 
       1.846089024620e-02       2.518835302045e+04 
       1.859170844673e-02       2.516677898286e+04 
       1.872258248478e-02       2.514393050357e+04 
       1.885351331161e-02       2.511975629031e+04 
       1.898450190435e-02       2.509436766231e+04 
       1.911554926650e-02       2.506775776399e+04 
       1.924665642831e-02       2.503991923030e+04 
       1.937782444730e-02       2.501088517478e+04 
       1.950905440873e-02       2.498065984423e+04 
       1.964034742610e-02       2.494930386542e+04 
       1.977170464169e-02       2.491679534649e+04 
       1.990312722707e-02       2.488318172263e+04 
       2.003461638372e-02       2.484846357713e+04 
       2.016617334356e-02       2.481264340718e+04 
       2.029779936957e-02       2.477578822719e+04 
       2.042949575643e-02       2.473790631573e+04 
       2.056126383113e-02       2.469898142741e+04 
       2.069310495367e-02       2.465900667578e+04 
       2.082502051773e-02       2.461809724556e+04 
       2.095701195137e-02       2.457619187846e+04 
       2.108908071779e-02       2.453332311889e+04 
       2.122122831606e-02       2.448950919454e+04 
       2.135345628192e-02       2.444477288668e+04 
       2.148576618858e-02       2.439914246340e+04 
       2.161815964752e-02       2.435263555672e+04 
       2.175063830942e-02       2.430522223574e+04 
       2.188320386497e-02       2.425697358695e+04 
       2.201585804582e-02       2.420789369822e+04 
       2.214860262550e-02       2.415794402784e+04 
       2.228143942044e-02       2.410725177434e+04 
       2.241437029088e-02       2.405573926892e+04 
       2.254739714199e-02       2.400345383213e+04 
       2.268052192490e-02       2.395039267255e+04 
       2.281374663779e-02       2.389660707249e+04 
       2.294707332700e-02       2.384205983882e+04 
       2.308050408828e-02       2.378682874328e+04 
       2.321404106788e-02       2.373088276982e+04 
       2.334768646389e-02       2.367433542504e+04 
       2.348144252747e-02       2.361693113431e+04 
       2.361531156417e-02       2.355905036066e+04 
       2.374929593531e-02       2.350040883446e+04 
       2.388339805938e-02       2.344119951307e+04 
       2.401762041350e-02       2.338143089265e+04 
       2.415196553489e-02       2.332093498055e+04 
       2.428643602245e-02       2.325993258638e+04 
       2.442103453832e-02       2.319834059494e+04 
       2.455576380958e-02       2.313621240218e+04 
       2.469062662987e-02       2.307352091033e+04 
       2.482562586121e-02       2.301029646497e+04 
       2.496076443581e-02       2.294654172637e+04 
       2.509604535791e-02       2.288231541333e+04 
       2.523147170572e-02       2.281760321423e+04 
       2.536704663345e-02       2.275235990490e+04 
       2.550277337335e-02       2.268667638103e+04 
       2.563865523785e-02       2.262056389840e+04 
       2.577469562177e-02       2.255397718371e+04 
       2.591089800460e-02       2.248695730604e+04 
       2.604726595286e-02       2.241956976005e+04 
       2.618380312255e-02       2.235172358167e+04 
       2.632051326166e-02       2.228349903494e+04 
       2.645740021281e-02       2.221490077533e+04 
       2.659446791593e-02       2.214590162992e+04 
       2.673172041106e-02       2.207655797724e+04 
       2.686916184128e-02       2.200687027225e+04 
       2.700679645569e-02       2.193688499579e+04 
       2.714462861252e-02       2.186644832248e+04 
       2.728266278237e-02       2.179578042493e+04 
       2.742090355154e-02       2.172480998960e+04 
       2.755935562549e-02       2.165348186544e+04 
       2.769802383245e-02       2.158194344545e+04 
       2.783691312715e-02       2.151011738758e+04 
       2.797602859464e-02       2.143799968302e+04 
       2.811537545436e-02       2.136563995459e+04 
       2.825495906428e-02       2.129300414758e+04 
       2.839478492520e-02       2.122014448509e+04 
       2.853485868529e-02       2.114705073032e+04 
       2.867518614471e-02       2.107373194974e+04 
       2.881577326050e-02       2.100022497382e+04 
       2.895662615156e-02       2.092650478729e+04 
       2.909775110397e-02       2.085262243410e+04 
       2.923915457636e-02       2.077856006653e+04 
       2.938084320565e-02       2.070426577326e+04 
       2.952282381290e-02       2.062978433151e+04 
       2.966510340949e-02       2.055519450730e+04 
       2.980768920348e-02       2.048041338495e+04 
       2.995058860634e-02       2.040551761969e+04 
       3.009380923982e-02       2.033046431571e+04 
       3.023735894327e-02       2.025531746512e+04 
       3.038124578113e-02       2.018000751549e+04 
       3.052547805085e-02       2.010458597950e+04 
       3.067006429108e-02       2.002907493803e+04 
       3.081501329029e-02       1.995347825124e+04 
       3.096033409572e-02       1.987770120568e+04 
       3.110603602275e-02       1.980195123757e+04 
       3.125212866468e-02       1.972608213166e+04 
       3.139862190297e-02       1.965008182133e+04 
       3.154552591797e-02       1.957406608834e+04 
       3.169285120011e-02       1.949799953101e+04 
       3.184060856160e-02       1.942182030692e+04 
       3.198880914879e-02       1.934554592386e+04 
       3.213746445495e-02       1.926935139287e+04 
       3.228658633383e-02       1.919299149860e+04 
       3.243618701381e-02       1.911665614945e+04 
       3.258627911268e-02       1.904033638080e+04 
       3.273687565330e-02       1.896391800251e+04 
       3.288799007991e-02       1.888746823133e+04 
       3.303963627536e-02       1.881109042490e+04 
       3.319182857915e-02       1.873461708226e+04 
       3.334458180644e-02       1.865814712808e+04 
       3.349791126809e-02       1.858166991082e+04 
       3.365183279164e-02       1.850517297090e+04 
       3.380636274355e-02       1.842873349890e+04 
       3.396151805255e-02       1.835224357487e+04 
       3.411731623426e-02       1.827577354329e+04 
       3.427377541722e-02       1.819936802354e+04 
       3.443091437033e-02       1.812292377052e+04 
       3.458875253184e-02       1.804648138060e+04 
       3.474731003997e-02       1.797012869941e+04 
       3.490660776535e-02       1.789373076016e+04 
       3.506666734529e-02       1.781741230446e+04 
       3.522751122010e-02       1.774109250557e+04 
       3.538916267153e-02       1.766476562825e+04 
       3.555164586360e-02       1.758856083662e+04 
       3.571498588585e-02       1.751230193462e+04 
       3.587920879929e-02       1.743610529549e+04 
       3.604434168523e-02       1.735992166899e+04 
       3.621041269715e-02       1.728382100193e+04 
       3.637745111596e-02       1.720773505836e+04 
       3.654548740878e-02       1.713166964550e+04 
       3.671455329162e-02       1.705566336084e+04 
       3.688468179618e-02       1.697969675939e+04 
       3.705590734120e-02       1.690370891915e+04 
       3.722826580867e-02       1.682780814452e+04 
       3.740179462525e-02       1.675193347249e+04 
       3.757653284950e-02       1.667610602719e+04 
       3.775252126519e-02       1.660029150191e+04 
       3.792980248142e-02       1.652453919554e+04 
       3.810842104004e-02       1.644884859623e+04 
       3.828842353094e-02       1.637311865343e+04 
       3.846985871613e-02       1.629746664509e+04 
       3.865277766321e-02       1.622180762528e+04 
       3.883723388910e-02       1.614616728274e+04 
       3.902328351524e-02       1.607055640151e+04 
       3.921098543492e-02       1.599500809905e+04 
       3.940040149438e-02       1.591943115300e+04 
       3.959159668861e-02       1.584389057949e+04 
       3.978463937365e-02       1.576832988226e+04 
       3.997960149677e-02       1.569282291290e+04 
       4.017655884659e-02       1.561722541359e+04 
       4.037559132508e-02       1.554171507475e+04 
       4.057678324379e-02       1.546604547294e+04 
       4.078022364701e-02       1.539055558194e+04 
       4.098600666458e-02       1.531493354989e+04 
       4.119423189798e-02       1.523931454863e+04 
       4.140500484313e-02       1.516358116690e+04 
       4.161843735448e-02       1.508783368007e+04 
       4.183464815488e-02       1.501207141405e+04 
       4.205376339704e-02       1.493620631431e+04 
       4.227591728266e-02       1.486024684491e+04 
       4.250125274651e-02       1.478421978449e+04 
       4.272992221352e-02       1.470811650536e+04 
       4.296208843861e-02       1.463189579239e+04 
       4.319792543978e-02       1.455554991603e+04 
       4.343761953736e-02       1.447909331186e+04 
       4.368137051367e-02       1.440241015464e+04 
       4.392939291020e-02       1.432563745431e+04 
       4.418191748186e-02       1.424863306614e+04 
       4.443919283123e-02       1.417148410190e+04 
       4.470148724986e-02       1.409407728035e+04 
       4.496909079811e-02       1.401644742274e+04 
       4.524231766084e-02       1.393853875468e+04 
       4.552150882317e-02       1.386032670211e+04 
       4.580703511854e-02       1.378182617817e+04 
       4.609930071171e-02       1.370294426228e+04 
       4.639874709116e-02       1.362370415683e+04 
       4.670585766080e-02       1.354412746331e+04 
       4.702116303892e-02       1.346404653344e+04 
       4.734524719540e-02       1.338352033977e+04 
       4.767875458620e-02       1.330247857109e+04 
       4.802239847946e-02       1.322081973594e+04 
       4.837697071111e-02       1.313853784966e+04 
       4.874335316345e-02       1.305555978035e+04 
       4.912253132912e-02       1.297182383915e+04 
       4.951561041097e-02       1.288730076336e+04 
       4.992383451946e-02       1.280183226103e+04 
       5.034860967101e-02       1.271536390929e+04 
       5.079153147112e-02       1.262773516792e+04 
       5.125441859622e-02       1.253893500077e+04 
       5.173935348093e-02       1.244869969922e+04 
       5.224873198881e-02       1.235694760865e+04 
       5.278532431061e-02       1.226340043661e+04 
       5.335234991030e-02       1.216789486005e+04 
       5.395357003070e-02       1.207009892121e+04 
       5.459340205777e-02       1.196967503784e+04 
       5.527706084672e-02       1.186617543033e+04 
       5.601073272998e-02       1.175910374588e+04 
       5.680178789471e-02       1.164772081930e+04 
       5.765903517634e-02       1.153118449354e+04 
       5.859301816466e-02       1.140833183682e+04 
       5.961633930572e-02       1.127773236739e+04 
       6.074397320841e-02       1.113724586917e+04 
       6.199348202570e-02       1.098428521784e+04 
