# dimensionless total [l(l+1)/2pi] C_l's
# for l=2 to 3000, i.e. number of multipoles equal to 2999
#
# -> if you prefer output in CAMB/HealPix/LensPix units/order, set 'format' to 'camb' in input file
# -> if you don't want to see such a header, set 'headers' to 'no' in input file
# -> for CMB lensing (phi), these are C_l^phi-phi for the lensing potential.
#    Remember the conversion factors:
#    C_l^dd (deflection) = l(l+1) C_l^phi-phi
#    C_l^gg (shear/convergence) = 1/4 (l(l+1))^2 C_l^phi-phi
#
# 1:l     2:TT                     3:EE                     4:TE                     5:BB                     6:phiphi                 7:TPhi                   8:Ephi               
    2       1.591970063597e-10       7.397290003325e-15       4.547152078573e-13       0.000000000000e+00       8.171643285898e-09       5.236554456158e-10      -2.488595972588e-12 
    3       1.512958660167e-10       1.245443665802e-14       5.689447386208e-13       0.000000000000e+00       5.009556902185e-09       3.848285005580e-10      -2.182013102197e-12 
    4       1.422680771678e-10       1.432481809757e-14       5.900014804375e-13       0.000000000000e+00       3.478776871790e-09       2.982605930696e-10      -1.723656519543e-12 
    5       1.346808188591e-10       1.297879039241e-14       5.555776986192e-13       0.000000000000e+00       2.596302118921e-09       2.396215546587e-10      -1.258241679428e-12 
    6       1.288533923761e-10       9.773016214125e-15       4.923762710445e-13       0.000000000000e+00       2.028650375456e-09       1.974930157980e-10      -8.368009310245e-13 
    7       1.245458175035e-10       6.313888865160e-15       4.189089311194e-13       0.000000000000e+00       1.637431098256e-09       1.659250673010e-10      -4.849221636477e-13 
    8       1.215022054208e-10       3.668028081144e-15       3.465079996035e-13       0.000000000000e+00       1.353995328029e-09       1.415484443058e-10      -2.134079884407e-13 
    9       1.194919194016e-10       2.150149291389e-15       2.821472510511e-13       0.000000000000e+00       1.140635567617e-09       1.223114876655e-10      -2.288003465253e-14 
   10       1.182394849305e-10       1.524145594543e-15       2.299600283113e-13       0.000000000000e+00       9.752077411403e-10       1.068591676227e-10       9.359473548726e-14 
   11       1.176488118308e-10       1.355052997681e-15       1.916866419679e-13       0.000000000000e+00       8.238885439231e-10       9.455889335655e-11       1.475200322073e-13 
   12       1.175450603540e-10       1.290508526110e-15       1.671203771683e-13       0.000000000000e+00       7.202582440816e-10       8.394314204823e-11       1.549953174162e-13 
   13       1.177886975020e-10       1.174053865147e-15       1.547287202382e-13       0.000000000000e+00       6.351587059317e-10       7.522704462762e-11       1.311596512865e-13 
   14       1.183574026944e-10       1.011783316270e-15       1.520074522391e-13       0.000000000000e+00       5.643279361659e-10       6.766201018471e-11       8.955968811772e-14 
   15       1.191789780659e-10       8.745175503217e-16       1.560360088284e-13       0.000000000000e+00       5.046840988894e-10       6.129142087480e-11       4.279293882068e-14 
   16       1.201779376567e-10       8.139888890759e-16       1.640853313471e-13       0.000000000000e+00       4.539533538360e-10       5.584338019068e-11      -1.922102593550e-16 
   17       1.213674609260e-10       8.311518598260e-16       1.738128075378e-13       0.000000000000e+00       4.104179641908e-10       5.112231889958e-11      -3.359197817865e-14 
   18       1.226654130516e-10       8.883018538553e-16       1.834631493288e-13       0.000000000000e+00       3.726175250848e-10       4.695545324851e-11      -5.463587394294e-14 
   19       1.240839152856e-10       9.560834379840e-16       1.922610911904e-13       0.000000000000e+00       3.399549431057e-10       4.327373461327e-11      -6.328895290991e-14 
   20       1.256142985747e-10       1.010010562471e-15       1.996851395165e-13       0.000000000000e+00       3.111767887569e-10       3.995853749328e-11      -6.139868306558e-14 
   21       1.272480293318e-10       1.060772171103e-15       2.057897271967e-13       0.000000000000e+00       2.858339633979e-10       3.699448387185e-11      -5.174020004647e-14 
   22       1.289443217413e-10       1.132917983551e-15       2.109145927271e-13       0.000000000000e+00       2.633225363697e-10       3.434965307008e-11      -3.813675201875e-14 
   23       1.307127618271e-10       1.242291674016e-15       2.155257682854e-13       0.000000000000e+00       2.433351370801e-10       3.197616547744e-11      -2.359466549878e-14 
   24       1.325529199794e-10       1.399955093629e-15       2.201705145181e-13       0.000000000000e+00       2.254120017215e-10       2.979803268315e-11      -1.104806576003e-14 
   25       1.344504760816e-10       1.601720331030e-15       2.252067223276e-13       0.000000000000e+00       2.093437100160e-10       2.781803123624e-11      -2.044191188826e-15 
   26       1.363739047956e-10       1.837505765692e-15       2.308829148651e-13       0.000000000000e+00       1.948407341074e-10       2.604238913112e-11       2.496091981893e-15 
   27       1.383335953967e-10       2.103041155468e-15       2.371299310608e-13       0.000000000000e+00       1.817302041448e-10       2.444910598861e-11       2.796046454942e-15 
   28       1.403411582656e-10       2.395581667661e-15       2.437051231407e-13       0.000000000000e+00       1.697872686733e-10       2.299679347043e-11      -3.154971632926e-16 
   29       1.424011113761e-10       2.714928309083e-15       2.502563687695e-13       0.000000000000e+00       1.589516845965e-10       2.167497977645e-11      -5.761093340088e-15 
   30       1.445009119453e-10       3.061471115656e-15       2.563024318735e-13       0.000000000000e+00       1.491078693271e-10       2.046947144871e-11      -1.207089935570e-14 
   31       1.466176068815e-10       3.435068731775e-15       2.613037691725e-13       0.000000000000e+00       1.400559756861e-10       1.935526331984e-11      -1.762094420041e-14 
   32       1.487587340277e-10       3.833988973986e-15       2.649535749228e-13       0.000000000000e+00       1.317497820917e-10       1.832447316364e-11      -2.172360690591e-14 
   33       1.509341345464e-10       4.255491112341e-15       2.669886661567e-13       0.000000000000e+00       1.241310323190e-10       1.736671106526e-11      -2.393027554567e-14 
   34       1.531464192230e-10       4.697512166126e-15       2.671698844985e-13       0.000000000000e+00       1.170936713096e-10       1.646663600947e-11      -2.390566461929e-14 
   35       1.553989222145e-10       5.163760338736e-15       2.654825459396e-13       0.000000000000e+00       1.106019545700e-10       1.562428578898e-11      -2.197441322093e-14 
   36       1.576887207119e-10       5.660495973937e-15       2.620097389801e-13       0.000000000000e+00       1.046040398753e-10       1.484078801505e-11      -1.878296828696e-14 
   37       1.600078477088e-10       6.193957391041e-15       2.568706498229e-13       0.000000000000e+00       9.902217173475e-11       1.411376209453e-11      -1.506872433094e-14 
   38       1.623580805941e-10       6.765818997225e-15       2.501778825669e-13       0.000000000000e+00       9.384216536559e-11       1.344156603732e-11      -1.131367631824e-14 
   39       1.647397500127e-10       7.376261491201e-15       2.420708666911e-13       0.000000000000e+00       8.904784544143e-11       1.281975481317e-11      -7.990528801925e-15 
   40       1.671469731865e-10       8.025159692545e-15       2.327304491097e-13       0.000000000000e+00       8.459382557292e-11       1.223946469433e-11      -5.662298085094e-15 
   41       1.695712470844e-10       8.712230123137e-15       2.223186541897e-13       0.000000000000e+00       8.042137060577e-11       1.169038210450e-11      -4.815229915412e-15 
   42       1.720151519357e-10       9.437584571303e-15       2.107684884586e-13       0.000000000000e+00       7.651832355288e-11       1.117171111455e-11      -5.279396727933e-15 
   43       1.744820463611e-10       1.020131959500e-14       1.979298345238e-13       0.000000000000e+00       7.287439507876e-11       1.068414706714e-11      -6.628405698105e-15 
   44       1.769718935572e-10       1.100335221857e-14       1.836244099930e-13       0.000000000000e+00       6.946317439476e-11       1.022670069260e-11      -8.329069902799e-15 
   45       1.794830608585e-10       1.184355124455e-14       1.676697853788e-13       0.000000000000e+00       6.625158606145e-11       9.797306135783e-12      -9.846810514278e-15 
   46       1.820191636452e-10       1.272220245130e-14       1.499643952430e-13       0.000000000000e+00       6.323465729509e-11       9.395201194001e-12      -1.101489085163e-14 
   47       1.845836873669e-10       1.363966482272e-14       1.304247695743e-13       0.000000000000e+00       6.040896076723e-11       9.019013686564e-12      -1.176441549289e-14 
   48       1.871778124569e-10       1.459623877763e-14       1.089614926213e-13       0.000000000000e+00       5.776212822478e-11       8.665973083844e-12      -1.202184854854e-14 
   49       1.898001965701e-10       1.559216395462e-14       8.547882850387e-14       0.000000000000e+00       5.527218516704e-11       8.331809795005e-12      -1.170890475577e-14 
   50       1.924482798515e-10       1.662761316290e-14       5.990501205003e-14       0.000000000000e+00       5.291418493836e-11       8.012028412065e-12      -1.078736693191e-14 
   51       1.951231236428e-10       1.770267743869e-14       3.229368295510e-14       0.000000000000e+00       5.068377746487e-11       7.706368532653e-12      -9.408132581174e-15 
   52       1.978255087716e-10       1.881737310346e-14       2.749337624741e-15       0.000000000000e+00       4.857888793337e-11       7.415380689832e-12      -7.802436054255e-15 
   53       2.005543846863e-10       1.997164290458e-14      -2.859988630507e-14       0.000000000000e+00       4.659266233293e-11       7.139123023926e-12      -6.242415864783e-15 
   54       2.033067233656e-10       2.116535361963e-14      -6.160114128720e-14       0.000000000000e+00       4.471314563380e-11       6.877125227024e-12      -5.043119965199e-15 
   55       2.060792330456e-10       2.239834211216e-14      -9.611590119567e-14       0.000000000000e+00       4.292693641516e-11       6.628620365463e-12      -4.481780813570e-15 
   56       2.088743326231e-10       2.367057238486e-14      -1.321508581425e-13       0.000000000000e+00       4.123195117559e-11       6.393390386457e-12      -4.527563052294e-15 
   57       2.116954055325e-10       2.498201334565e-14      -1.697576713619e-13       0.000000000000e+00       3.962726725647e-11       6.171067499423e-12      -5.048191749214e-15 
   58       2.145449979332e-10       2.633259327782e-14      -2.089961991021e-13       0.000000000000e+00       3.810926094876e-11       5.960859639485e-12      -5.885609047970e-15 
   59       2.174247450796e-10       2.772219933216e-14      -2.499349922831e-13       0.000000000000e+00       3.667144059849e-11       5.761524848780e-12      -6.854756188994e-15 
   60       2.203352976901e-10       2.915067701908e-14      -2.926517881534e-13       0.000000000000e+00       3.530427971233e-11       5.571345657757e-12      -7.742355530515e-15 
   61       2.232768284035e-10       3.061775698613e-14      -3.372161757525e-13       0.000000000000e+00       3.399786675083e-11       5.388590731015e-12      -8.356464058615e-15 
   62       2.262508505618e-10       3.212281729407e-14      -3.836319287331e-13       0.000000000000e+00       3.275092710048e-11       5.213078849305e-12      -8.690886987297e-15 
   63       2.292586788718e-10       3.366506663701e-14      -4.318825456175e-13       0.000000000000e+00       3.156353923903e-11       5.044922116873e-12      -8.795675181526e-15 
   64       2.323008312120e-10       3.524360958905e-14      -4.819478651968e-13       0.000000000000e+00       3.043442075694e-11       4.884059717514e-12      -8.729995361047e-15 
   65       2.353769734080e-10       3.685744378924e-14      -5.338039945137e-13       0.000000000000e+00       2.936085083430e-11       4.730247756402e-12      -8.562523062333e-15 
   66       2.384858640073e-10       3.850545712646e-14      -5.874232368442e-13       0.000000000000e+00       2.833859271769e-11       4.583049101933e-12      -8.371835600539e-15 
   67       2.416252990548e-10       4.018642492438e-14      -6.427740196799e-13       0.000000000000e+00       2.736181619715e-11       4.441823227562e-12      -8.246805031453e-15 
   68       2.447930540239e-10       4.189913308133e-14      -6.998239811019e-13       0.000000000000e+00       2.642465699203e-11       4.305915753589e-12      -8.265938088092e-15 
   69       2.479900546842e-10       4.364278275649e-14      -7.585501160882e-13       0.000000000000e+00       2.552643510992e-11       4.175294377079e-12      -8.429656413562e-15 
   70       2.512177524788e-10       4.541666300343e-14      -8.189305661859e-13       0.000000000000e+00       2.466735945708e-11       4.050024141574e-12      -8.714937408034e-15 
   71       2.544771550278e-10       4.722003246949e-14      -8.809416516272e-13       0.000000000000e+00       2.384694946654e-11       3.930074178075e-12      -9.095010284281e-15 
   72       2.577687964054e-10       4.905211980203e-14      -9.445578800895e-13       0.000000000000e+00       2.306399943969e-11       3.815312654300e-12      -9.539210589088e-15 
   73       2.610927074188e-10       5.091212405474e-14      -1.009751955455e-12       0.000000000000e+00       2.231654288790e-11       3.705501723934e-12      -1.001283472465e-14 
   74       2.644483858852e-10       5.279921509394e-14      -1.076494786568e-12       0.000000000000e+00       2.160181687408e-11       3.600292475884e-12      -1.047699446999e-14 
   75       2.678347669104e-10       5.471253400482e-14      -1.144755495999e-12       0.000000000000e+00       2.091622635428e-11       3.499219883532e-12      -1.088847150234e-14 
   76       2.712507984344e-10       5.665103939477e-14      -1.214499239991e-12       0.000000000000e+00       2.025623759643e-11       3.401821665020e-12      -1.120909180350e-14 
   77       2.746973547394e-10       5.861301304804e-14      -1.285680189994e-12       0.000000000000e+00       1.962132534864e-11       3.308031052142e-12      -1.143614402222e-14 
   78       2.781756195013e-10       6.059646444417e-14      -1.358247281248e-12       0.000000000000e+00       1.901150081402e-11       3.217846801328e-12      -1.157726951275e-14 
   79       2.816864944468e-10       6.259927415448e-14      -1.432146252514e-12       0.000000000000e+00       1.842641391284e-11       3.131213167351e-12      -1.164148347022e-14 
   80       2.852305820427e-10       6.461919108841e-14      -1.507319609947e-12       0.000000000000e+00       1.786533667557e-11       3.048017393475e-12      -1.163922466499e-14 
   81       2.888081681856e-10       6.665382973976e-14      -1.583706590975e-12       0.000000000000e+00       1.732714663594e-11       2.968087201605e-12      -1.158240517699e-14 
   82       2.924192048908e-10       6.870066743300e-14      -1.661243128172e-12       0.000000000000e+00       1.681031022405e-11       2.891188282437e-12      -1.148446013012e-14 
   83       2.960632929824e-10       7.075704156949e-14      -1.739861813137e-12       0.000000000000e+00       1.631286615940e-11       2.817021785605e-12      -1.136039742654e-14 
   84       2.997399534231e-10       7.282040491299e-14      -1.819497224827e-12       0.000000000000e+00       1.583290264870e-11       2.745298455141e-12      -1.122389529927e-14 
   85       3.034495309059e-10       7.488914610381e-14      -1.900103008603e-12       0.000000000000e+00       1.537011625119e-11       2.675980654654e-12      -1.107793318066e-14 
   86       3.071924090175e-10       7.696190075209e-14      -1.981637575460e-12       0.000000000000e+00       1.492448219373e-11       2.609076049664e-12      -1.092269159419e-14 
   87       3.109687226399e-10       7.903730705251e-14      -2.064059042550e-12       0.000000000000e+00       1.449577535794e-11       2.544563325964e-12      -1.075836635496e-14 
   88       3.147783454909e-10       8.111400736730e-14      -2.147325287214e-12       0.000000000000e+00       1.408356197250e-11       2.482390967928e-12      -1.058516868748e-14 
   89       3.186208776649e-10       8.319064980933e-14      -2.231394001018e-12       0.000000000000e+00       1.368719130545e-11       2.422476036817e-12      -1.040332534353e-14 
   90       3.224956331733e-10       8.526588982518e-14      -2.316222743789e-12       0.000000000000e+00       1.330578735652e-11       2.364702949081e-12      -1.021307872008e-14 
   91       3.264016274850e-10       8.733839177820e-14      -2.401768997651e-12       0.000000000000e+00       1.293824054941e-11       2.308922254672e-12      -1.001468697708e-14 
   92       3.303375650668e-10       8.940683053159e-14      -2.487990221058e-12       0.000000000000e+00       1.258319942411e-11       2.254949415342e-12      -9.808424155320e-15 
   93       3.343022160046e-10       9.146977889459e-14      -2.574839141104e-12       0.000000000000e+00       1.223939152951e-11       2.202608906621e-12      -9.594785363566e-15 
   94       3.382956377236e-10       9.352534715851e-14      -2.662248703163e-12       0.000000000000e+00       1.190665935315e-11       2.151876764739e-12      -9.375137384837e-15 
   95       3.423181148334e-10       9.557149202155e-14      -2.750144947048e-12       0.000000000000e+00       1.158506556027e-11       2.102757319737e-12      -9.151166594552e-15 
   96       3.463697793967e-10       9.760612591127e-14      -2.838451555871e-12       0.000000000000e+00       1.127457393787e-11       2.055239190555e-12      -8.924685503529e-15 
   97       3.504506038103e-10       9.962711700088e-14      -2.927089844712e-12       0.000000000000e+00       1.097504560592e-11       2.009294685484e-12      -8.697635690795e-15 
   98       3.545603936873e-10       1.016322892256e-13      -3.015978749293e-12       0.000000000000e+00       1.068623522853e-11       1.964879202628e-12      -8.472090736392e-15 
   99       3.586987807377e-10       1.036194222989e-13      -3.105034814649e-12       0.000000000000e+00       1.040778722516e-11       1.921930630353e-12      -8.250259154184e-15 
  100       3.628652156501e-10       1.055862517291e-13      -3.194172183800e-12       0.000000000000e+00       1.013923198176e-11       1.880368747752e-12      -8.034487324664e-15 
  101       3.670589609731e-10       1.075304688354e-13      -3.283302586423e-12       0.000000000000e+00       9.879982062016e-12       1.840094625094e-12      -7.827262427764e-15 
  102       3.712790839965e-10       1.094497207642e-13      -3.372335327524e-12       0.000000000000e+00       9.629328418485e-12       1.800990024285e-12      -7.631215375660e-15 
  103       3.755244496328e-10       1.113416105056e-13      -3.461177276106e-12       0.000000000000e+00       9.386436603811e-12       1.762916799319e-12      -7.449123745579e-15 
  104       3.797939477584e-10       1.132038102974e-13      -3.549737499475e-12       0.000000000000e+00       9.150536039863e-12       1.725749527088e-12      -7.283286185407e-15 
  105       3.840872255444e-10       1.150344192470e-13      -3.637941903505e-12       0.000000000000e+00       8.921525104061e-12       1.689479711235e-12      -7.133543068399e-15 
  106       3.884040412425e-10       1.168316542744e-13      -3.725720558145e-12       0.000000000000e+00       8.699441098480e-12       1.654124602530e-12      -6.998992680623e-15 
  107       3.927440340717e-10       1.185937422857e-13      -3.813003267640e-12       0.000000000000e+00       8.484272843817e-12       1.619694993977e-12      -6.878591945306e-15 
