# dimensionless total lensed [l(l+1)/2pi] C_l's
# for l=2 to 3000, i.e. number of multipoles equal to 2999
#
# -> if you prefer output in CAMB/HealPix/LensPix units/order, set 'format' to 'camb' in input file
# -> if you don't want to see such a header, set 'headers' to 'no' in input file
# -> for CMB lensing (phi), these are C_l^phi-phi for the lensing potential.
#    Remember the conversion factors:
#    C_l^dd (deflection) = l(l+1) C_l^phi-phi
#    C_l^gg (shear/convergence) = 1/4 (l(l+1))^2 C_l^phi-phi
#
# 1:l     2:TT                     3:EE                     4:TE                     5:BB                     6:phiphi                 7:TPhi                   8:Ephi               
    2       5.188539997888e-10       2.553357268624e-15       6.563264195654e-13       4.071377155930e-19       2.351317841395e-08      -2.658828189044e-09      -1.857081187854e-12 
    3       3.809557672763e-10       4.872891125190e-15       6.339548956637e-13       8.149959319677e-19       1.395842021061e-08      -1.748318465452e-09      -1.510350501844e-12 
    4       3.059202025271e-10       7.119874693283e-15       6.029106942389e-13       1.359892715163e-18       9.639229391049e-09      -1.269323707133e-09      -1.275635991195e-12 
    5       2.591888873601e-10       8.582100234633e-15       5.596976539249e-13       2.042693033787e-18       7.161575102319e-09      -9.764525326700e-10      -1.072204055127e-12 
    6       2.274196795485e-10       8.934788724689e-15       5.063762390139e-13       2.864399508070e-18       5.560915205989e-09      -7.803485419164e-10      -8.800892880799e-13 
    7       2.045745431297e-10       8.258698313882e-15       4.489000783100e-13       3.826105415618e-18       4.459708772058e-09      -6.412635420929e-10      -7.016222097784e-13 
    8       1.875567079059e-10       6.881173694264e-15       3.915249478326e-13       4.928943384628e-18       3.669149840352e-09      -5.383554920561e-10      -5.397588722327e-13 
    9       1.745349968064e-10       5.214508963881e-15       3.371608313006e-13       6.174032166845e-18       3.081660382462e-09      -4.597354749443e-10      -3.967587501517e-13 
   10       1.644075429481e-10       3.624136064827e-15       2.876328942956e-13       7.562423986587e-18       2.631955049779e-09      -3.980486832501e-10      -2.739743920284e-13 
   11       1.564327498263e-10       2.351281882903e-15       2.439988467239e-13       9.095054954641e-18       1.991673846949e-09      -3.301417643821e-10      -1.725241156251e-13 
   12       1.500640794352e-10       1.492501303407e-15       2.068895478398e-13       1.077270091634e-17       1.725398953771e-09      -2.905381944065e-10      -9.128663550753e-14 
   13       1.449823430962e-10       1.022622944374e-15       1.765550745762e-13       1.259594087640e-17       1.508920066825e-09      -2.576295459478e-10      -2.900725003757e-14 
   14       1.409413146145e-10       8.411368838575e-16       1.529743842956e-13       1.456512981859e-17       1.330441498576e-09      -2.300821627636e-10       1.527851104765e-14 
   15       1.376876325673e-10       8.227448610869e-16       1.359337335052e-13       1.668038232904e-17       1.181492646831e-09      -2.065696692219e-10       4.398101095711e-14 
   16       1.350909842175e-10       8.577461532966e-16       1.249391677225e-13       1.894156795660e-17       1.055856091666e-09      -1.864243435996e-10       5.894643241119e-14 
   17       1.330620241919e-10       8.749488404760e-16       1.192275945462e-13       2.134831872068e-17       9.488869400794e-10      -1.688824527969e-10       6.297576177256e-14 
   18       1.314572256188e-10       8.457243727626e-16       1.179432052480e-13       2.390004239680e-17       8.566151920149e-10      -1.536175015352e-10       5.851553966534e-14 
   19       1.302574644633e-10       7.797977700734e-16       1.203682604763e-13       2.659598453513e-17       7.776034850181e-10      -1.404219913519e-10       4.780021537270e-14 
   20       1.293783195424e-10       7.019550820930e-16       1.253988353917e-13       2.943520179235e-17       7.084029177131e-10      -1.286891735180e-10       3.376160048401e-14 
   21       1.287887845972e-10       6.372862145333e-16       1.322631274476e-13       3.241670018254e-17       6.478041806428e-10      -1.182697324364e-10       1.827287776922e-14 
   22       1.284198085132e-10       6.104525599646e-16       1.401200910367e-13       3.553940038704e-17       5.943093129481e-10      -1.089977402643e-10       3.050845236678e-15 
   23       1.282631538765e-10       6.252924062215e-16       1.483951422763e-13       3.880228810259e-17       5.471032592533e-10      -1.007672385667e-10      -1.067077543014e-14 
   24       1.282918614767e-10       6.755252241859e-16       1.565406491033e-13       4.220437950303e-17       5.049934061113e-10      -9.338700319835e-11      -2.185138118766e-14 
   25       1.284882058136e-10       7.481186904612e-16       1.642485213520e-13       4.574487994231e-17       4.674327027153e-10      -8.675323182154e-11      -3.002865655352e-14 
   26       1.288143292906e-10       8.264912435947e-16       1.712900899992e-13       4.942314353330e-17       4.336973927852e-10      -8.072907638170e-11      -3.505554605403e-14 
   27       1.292665160087e-10       9.019002027988e-16       1.775922131400e-13       5.323880194104e-17       4.033469188868e-10      -7.526305273714e-11      -3.708124781673e-14 
   28       1.298350578684e-10       9.690685867479e-16       1.831571182310e-13       5.719173666358e-17       3.758201005410e-10      -7.029139897852e-11      -3.647878738871e-14 
   29       1.305187458378e-10       1.031698432501e-15       1.880655656644e-13       6.128218230514e-17       3.509547884094e-10      -6.578591404525e-11      -3.367378518198e-14 
   30       1.312983174592e-10       1.097745885016e-15       1.924577504210e-13       6.551069177468e-17       3.284618147193e-10      -6.168276893702e-11      -2.927006327392e-14 
   31       1.321392698315e-10       1.176049621199e-15       1.965067223555e-13       6.987812363097e-17       3.078547322637e-10      -5.788466705539e-11      -2.400389265581e-14 
   32       1.330444358415e-10       1.271163588308e-15       2.003481696468e-13       7.438561552218e-17       2.890140270755e-10      -5.438042528677e-11      -1.837683893664e-14 
   33       1.340175982489e-10       1.386677861528e-15       2.041281721344e-13       7.903464887411e-17       2.717950892279e-10      -5.116351884056e-11      -1.290320961393e-14 
   34       1.350527017215e-10       1.525435241877e-15       2.079968523417e-13       8.382701285484e-17       2.559427571300e-10      -4.820655447065e-11      -8.121451568227e-15 
   35       1.361494817844e-10       1.685592087058e-15       2.120171945321e-13       8.876455726437e-17       2.413674509941e-10      -4.549070256210e-11      -4.276775535080e-15 
   36       1.373010229943e-10       1.863065147496e-15       2.162240044308e-13       9.384939136099e-17       2.279435465088e-10      -4.298243760083e-11      -1.529354016535e-15 
   37       1.384944598362e-10       2.053642036505e-15       2.206293565553e-13       9.908379813650e-17       2.154861004703e-10      -4.063782984085e-11       3.461422432251e-18 
   38       1.397317043563e-10       2.256990287918e-15       2.251617500586e-13       1.044696461532e-16       2.039581539066e-10      -3.845143699658e-11       3.850667110599e-16 
   39       1.410140667369e-10       2.473921823756e-15       2.297037760076e-13       1.100088020844e-16       1.933190644058e-10      -3.642117839229e-11      -2.270026996846e-16 
   40       1.423358046922e-10       2.705325274077e-15       2.341054240233e-13       1.157032957929e-16       1.834616074031e-10      -3.453398559202e-11      -1.612155247633e-15 
   41       1.436877652255e-10       2.951961294008e-15       2.381995081010e-13       1.215550913995e-16       1.742484167296e-10      -3.277091650065e-11      -3.509656558964e-15 
   42       1.450714296960e-10       3.213757857304e-15       2.418595899857e-13       1.275652968121e-16       1.656494691467e-10      -3.112686707263e-11      -5.707332419149e-15 
   43       1.464882548165e-10       3.490292923438e-15       2.449569863414e-13       1.337347067039e-16       1.576396262391e-10      -2.959561902245e-11      -7.974045250153e-15 
   44       1.479353223632e-10       3.780973883445e-15       2.473435470332e-13       1.400640049657e-16       1.501574507943e-10      -2.816373972875e-11      -1.003206636505e-14 
   45       1.494077839408e-10       4.085247444469e-15       2.488778690401e-13       1.465536041481e-16       1.431266158606e-10      -2.681507930068e-11      -1.161398495837e-14 
   46       1.509080240491e-10       4.403327623358e-15       2.495158846072e-13       1.532031311366e-16       1.365345446758e-10      -2.554719745282e-11      -1.266001262386e-14 
   47       1.524385454592e-10       4.735668420245e-15       2.492454778514e-13       1.600117699628e-16       1.303723866282e-10      -2.435888579473e-11      -1.317512528795e-14 
   48       1.539991203534e-10       5.082765463759e-15       2.480619755766e-13       1.669783799930e-16       1.246113317696e-10      -2.324526491279e-11      -1.317534881693e-14 
   49       1.555865483202e-10       5.445158694443e-15       2.459686167718e-13       1.741014768470e-16       1.192011322197e-10      -2.219751049177e-11      -1.268852131360e-14 
   50       1.571964094148e-10       5.823485701855e-15       2.429792608504e-13       1.813792970861e-16       1.140850005954e-10      -2.120556140316e-11      -1.176312577471e-14 
   51       1.588294457685e-10       6.218652578212e-15       2.391262897655e-13       1.888100572449e-16       1.092525031377e-10      -2.026774595619e-11      -1.049584598551e-14 
   52       1.604864938751e-10       6.631714079492e-15       2.344556623912e-13       1.963917321279e-16       1.046984679832e-10      -1.938329516825e-11      -9.012808037795e-15 
   53       1.621664963172e-10       7.063831971990e-15       2.290254244648e-13       2.041219624066e-16       1.004071718566e-10      -1.854945878850e-11      -7.463278687133e-15 
   54       1.638663536467e-10       7.516280099443e-15       2.229062834371e-13       2.119980394803e-16       9.635163215818e-11      -1.776137174735e-11      -6.020807431254e-15 
   55       1.655824413080e-10       7.990196514254e-15       2.161624592465e-13       2.200172846019e-16       9.250171393565e-11      -1.701353604873e-11      -4.847436497095e-15 
   56       1.673159410208e-10       8.485756155572e-15       2.087873490234e-13       2.281783312267e-16       8.885243095175e-11      -1.630500349498e-11      -3.973302764301e-15 
   57       1.690685743844e-10       9.002801522148e-15       2.007528870135e-13       2.364801347098e-16       8.540143524634e-11      -1.563524653781e-11      -3.389126814695e-15 
   58       1.708409724381e-10       9.541072918111e-15       1.920276789807e-13       2.449216061692e-16       8.214046168912e-11      -1.500258656398e-11      -3.080234164573e-15 
   59       1.726325924138e-10       1.010020366545e-14       1.825768085874e-13       2.535016127080e-16       7.905496350490e-11      -1.440412328412e-11      -3.026258430379e-15 
   60       1.744416344881e-10       1.067971531648e-14       1.723616437751e-13       2.622189776363e-16       7.612374779887e-11      -1.383566412143e-11      -3.200844494396e-15 
   61       1.762660375775e-10       1.127917036143e-14       1.613420958723e-13       2.710728733190e-16       7.332480503954e-11      -1.329287256772e-11      -3.570663018838e-15 
   62       1.781069162454e-10       1.189868123646e-14       1.494844274982e-13       2.800641022586e-16       7.065515110151e-11      -1.277517420282e-11      -4.092867026887e-15 
   63       1.799657510322e-10       1.253850759234e-14       1.367548616214e-13       2.891941052677e-16       6.811481248431e-11      -1.228260611229e-11      -4.716535088057e-15 
   64       1.818433294474e-10       1.319890908676e-14       1.231171699784e-13       2.984646066464e-16       6.570086074429e-11      -1.181464398439e-11      -5.382997220105e-15 
   65       1.837396969590e-10       1.388014559399e-14       1.085325572778e-13       3.078776268621e-16       6.340724454959e-11      -1.137017017567e-11      -6.025516204318e-15 
   66       1.856541079833e-10       1.458247741456e-14       9.295954540320e-14       3.174354952291e-16       6.122462173494e-11      -1.094744177674e-11      -6.568968900796e-15 
   67       1.875849768743e-10       1.530616548495e-14       7.635385761708e-14       3.271408625886e-16       5.914019135658e-11      -1.054405867785e-11      -6.929527563747e-15 
   68       1.895306316562e-10       1.605143379232e-14       5.867839362885e-14       3.369964103837e-16       5.714109076903e-11      -1.015760123420e-11      -7.036109471128e-15 
   69       1.914918621213e-10       1.681834730647e-14       3.993576071340e-14       3.470038810885e-16       5.522576157433e-11      -9.787764682948e-12      -6.900485139353e-15 
   70       1.934698023716e-10       1.760690957673e-14       2.014215651792e-14       3.571648731943e-16       5.339459559107e-11      -9.434601834214e-12      -6.560868649514e-15 
   71       1.954651457899e-10       1.841709759505e-14      -6.819988445248e-16       3.674811322585e-16       5.164649821278e-11      -9.097877194424e-12      -6.061640035059e-15 
   72       1.974781165596e-10       1.924886103903e-14      -2.251192051306e-14       3.779545558190e-16       4.997881163981e-11      -8.777052157312e-12      -5.453583331454e-15 
   73       1.995084411851e-10       2.010212151500e-14      -4.531831659711e-14       3.885871983100e-16       4.838723811125e-11      -8.471270194903e-12      -4.794124625861e-15 
   74       2.015553200115e-10       2.097677180107e-14      -6.906724589449e-14       3.993812759763e-16       4.686576313685e-11      -8.179342048496e-12      -4.147570106802e-15 
   75       2.036173987452e-10       2.187267509019e-14      -9.371997560951e-14       4.103391717885e-16       4.540657872895e-11      -7.899730919652e-12      -3.585344113831e-15 
   76       2.056933648378e-10       2.278969371503e-14      -1.192425225208e-13       4.214627649568e-16       4.400201522931e-11      -7.630930492545e-12      -3.170210962116e-15 
   77       2.077839251505e-10       2.372778304314e-14      -1.456365996695e-13       4.327512674537e-16       4.265091318803e-11      -7.372711320406e-12      -2.905092479976e-15 
   78       2.098901388594e-10       2.468691340833e-14      -1.729140806702e-13       4.442030000674e-16       4.135327935377e-11      -7.125075874640e-12      -2.775306227767e-15 
   79       2.120128091722e-10       2.566704199798e-14      -2.010878722731e-13       4.558160240131e-16       4.010834615473e-11      -6.887879232326e-12      -2.763664809037e-15 
   80       2.141524676609e-10       2.666811270057e-14      -2.301719706490e-13       4.675881319981e-16       3.891453611842e-11      -6.660822322532e-12      -2.850385494531e-15 
   81       2.163093585960e-10       2.769005595332e-14      -2.601815176747e-13       4.795168392878e-16       3.776942629141e-11      -6.443445172622e-12      -3.012999846194e-15 
   82       2.184834232791e-10       2.873278858979e-14      -2.911328572177e-13       4.915993747702e-16       3.666971265916e-11      -6.235120154570e-12      -3.226263341169e-15 
   83       2.206742843771e-10       2.979621368749e-14      -3.230435914212e-13       5.038326720217e-16       3.561117456576e-11      -6.035045231265e-12      -3.462064995803e-15 
   84       2.228815410973e-10       3.088020573893e-14      -3.559291463437e-13       5.162137029339e-16       3.458969978361e-11      -5.842430655670e-12      -3.694584379660e-15 
   85       2.251057452561e-10       3.198456367407e-14      -3.897916914204e-13       5.287405617136e-16       3.360463291131e-11      -5.657109423829e-12      -3.916942912424e-15 
   86       2.273475590503e-10       3.310904973435e-14      -4.246294777382e-13       5.414115450415e-16       3.265591941553e-11      -5.479016110012e-12      -4.127160134008e-15 
   87       2.296074483136e-10       3.425340306366e-14      -4.604401630121e-13       5.542248223571e-16       3.174307684283e-11      -5.307998960961e-12      -4.323149596113e-15 
   88       2.318856720741e-10       3.541733930928e-14      -4.972208092049e-13       5.671784326823e-16       3.086517706545e-11      -5.143816393507e-12      -4.502716677661e-15 
   89       2.341822721120e-10       3.660055022277e-14      -5.349678801448e-13       5.802702814433e-16       3.002082852716e-11      -4.986133492192e-12      -4.663556400226e-15 
   90       2.364970625172e-10       3.780270326100e-14      -5.736772391453e-13       5.934981372936e-16       2.920815848909e-11      -4.834518506884e-12      -4.803251243462e-15 
   91       2.388296192471e-10       3.902344118700e-14      -6.133441466230e-13       6.068596289365e-16       2.842479527553e-11      -4.688439350397e-12      -4.919268960535e-15 
   92       2.411792696844e-10       4.026238167097e-14      -6.539632577168e-13       6.203522419480e-16       2.766785051979e-11      -4.547260096109e-12      -5.008960393556e-15 
   93       2.435454009548e-10       4.151913358880e-14      -6.955276366588e-13       6.339741186604e-16       2.693460561541e-11      -4.410392367701e-12      -5.070492967751e-15 
   94       2.459284606074e-10       4.279334958856e-14      -7.380256354881e-13       6.477266023306e-16       2.622472773172e-11      -4.277783161247e-12      -5.105816520114e-15 
   95       2.483290878303e-10       4.408468072902e-14      -7.814435393084e-13       6.616120715207e-16       2.553835581228e-11      -4.149494257435e-12      -5.118141568092e-15 
   96       2.507478021151e-10       4.539276031884e-14      -8.257664920422e-13       6.756331788722e-16       2.487541808694e-11      -4.025552508962e-12      -5.111053892237e-15 
   97       2.531849971893e-10       4.671720374676e-14      -8.709784805524e-13       6.897928589520e-16       2.423562398417e-11      -3.905948464330e-12      -5.088525195541e-15 
   98       2.556409349506e-10       4.805760831172e-14      -9.170623187649e-13       7.040943360986e-16       2.361845604340e-11      -3.790634991642e-12      -5.054923762776e-15 
   99       2.581157393992e-10       4.941355305302e-14      -9.639996317897e-13       7.185411322682e-16       2.302316182735e-11      -3.679525902402e-12      -5.015025119836e-15 
  100       2.606093905717e-10       5.078459858045e-14      -1.011770840043e-12       7.331370748806e-16       2.244874583436e-11      -3.572494575308e-12      -4.974022693075e-15 
  101       2.631217184740e-10       5.217028690445e-14      -1.060355143370e-12       7.478863046659e-16       2.189396141078e-11      -3.469372580054e-12      -4.937538468645e-15 
  102       2.656523970146e-10       5.357014126627e-14      -1.109730505166e-12       7.627932835101e-16       2.135730266325e-11      -3.369948301122e-12      -4.911633651837e-15 
  103       2.682009379381e-10       5.498366596807e-14      -1.159873636495e-12       7.778628023015e-16       2.083699637107e-11      -3.273965561583e-12      -4.902819326419e-15 
  104       2.707669034167e-10       5.641033452877e-14      -1.210762209226e-12       7.930989595214e-16       2.033140560490e-11      -3.181180278299e-12      -4.916505977980e-15 
  105       2.733505895995e-10       5.784955269506e-14      -1.262381870084e-12       8.085019229770e-16       1.984032009755e-11      -3.091542107844e-12      -4.952090570507e-15 
  106       2.759524245204e-10       5.930069009379e-14      -1.314720148902e-12       8.240707432171e-16       1.936382591727e-11      -3.005034886897e-12      -5.007222587967e-15 
  107       2.785727540658e-10       6.076309116555e-14      -1.367764322738e-12       8.398043403014e-16       1.890190580656e-11      -2.921620062428e-12      -5.079299488381e-15 
