# total [l(l+1)/2pi] C_l's (units: [microK]^2)
# for l=2 to 3000, i.e. number of multipoles equal to 2999
#
# -> if you don't want to see such a header, set 'headers' to 'no' in input file
# -> for CMB lensing (d), these are C_l^dd for the deflection field.
#    Remember the conversion factors:
#    C_l^dd (deflection) = l(l+1) C_l^phi-phi
#    C_l^gg (shear/convergence) = 1/4 (l(l+1))^2 C_l^phi-phi
#
# 1:l     2:TT                     3:EE                     4:BB                     5:TE                     6:dd                     7:dT                     8:dE                 
    2       1.078079672555e+03       4.520997626616e-02       0.000000000000e+00       3.219418056156e+00       5.078541492240e-08       3.160256503328e-03      -1.518268026432e-05 
    3       1.018147608075e+03       7.018758626078e-02       0.000000000000e+00       3.900253006501e+00       6.372954505798e-08       3.191271379572e-03      -1.810830589980e-05 
    4       9.596622535156e+02       7.466231769664e-02       0.000000000000e+00       3.903553644299e+00       7.417040803622e-08       3.129798449120e-03      -1.766487556949e-05 
    5       9.142786413977e+02       6.225063135842e-02       0.000000000000e+00       3.542885384760e+00       8.317405562962e-08       3.035404348829e-03      -1.492331209760e-05 
    6       8.817156284811e+02       4.290395463895e-02       0.000000000000e+00       3.024102137089e+00       9.103295459745e-08       2.928710059946e-03      -1.082568005509e-05 
    7       8.598155466644e+02       2.553695269480e-02       0.000000000000e+00       2.481160001607e+00       9.791194155052e-08       2.818166475697e-03      -6.285661035607e-06 
    8       8.455990065428e+02       1.432739706970e-02       0.000000000000e+00       1.990439330784e+00       1.039747208922e-07       2.707655593304e-03      -2.080669251362e-06 
    9       8.376655447571e+02       9.042408847884e-03       0.000000000000e+00       1.591499462943e+00       1.094016176858e-07       2.600234788056e-03       1.219893324864e-06 
   10       8.345468458623e+02       7.283216809534e-03       0.000000000000e+00       1.299665985808e+00       1.143327126961e-07       2.498946796110e-03       3.301197242882e-06 
   11       8.348774999255e+02       6.690567987744e-03       0.000000000000e+00       1.113765771026e+00       1.154149565542e-07       2.411523109471e-03       4.095046064478e-06 
   12       8.383312041961e+02       6.040977518518e-03       0.000000000000e+00       1.019974017751e+00       1.191984731419e-07       2.321895988854e-03       3.796903931165e-06 
   13       8.437690840822e+02       5.199915977749e-03       0.000000000000e+00       9.976455331561e-01       1.225896807544e-07       2.237471458499e-03       2.699437642190e-06 
   14       8.507190816225e+02       4.509837519723e-03       0.000000000000e+00       1.024637590813e+00       1.256300700588e-07       2.155817309139e-03       1.180693089303e-06 
   15       8.592299466830e+02       4.233135758621e-03       0.000000000000e+00       1.080280013308e+00       1.283579794914e-07       2.082251133493e-03      -3.792113343652e-07 
   16       8.689666835513e+02       4.350120922522e-03       0.000000000000e+00       1.148021633276e+00       1.308059085814e-07       2.015235337726e-03      -1.678995308834e-06 
   17       8.795299361768e+02       4.664675487047e-03       0.000000000000e+00       1.216890276987e+00       1.330009982806e-07       1.950410091969e-03      -2.529681660068e-06 
   18       8.909147089500e+02       4.995184217167e-03       0.000000000000e+00       1.279858928799e+00       1.349142192389e-07       1.886503232865e-03      -2.861612258948e-06 
   19       9.031491930962e+02       5.341290505448e-03       0.000000000000e+00       1.335730436028e+00       1.367231567284e-07       1.825400363199e-03      -2.704459667420e-06 
   20       9.158227769612e+02       5.770820747107e-03       0.000000000000e+00       1.385496834152e+00       1.382820321037e-07       1.765662104692e-03      -2.201151148814e-06 
   21       9.290211086899e+02       6.376540460279e-03       0.000000000000e+00       1.431914817740e+00       1.396823033834e-07       1.709626643281e-03      -1.505535803429e-06 
   22       9.427437878929e+02       7.251176257846e-03       0.000000000000e+00       1.478679841287e+00       1.408980048126e-07       1.658492816332e-03      -8.179205655625e-07 
   23       9.569367343359e+02       8.385766077536e-03       0.000000000000e+00       1.528383736236e+00       1.420023424975e-07       1.611500414074e-03      -2.716552948793e-07 
   24       9.713766036991e+02       9.730833729151e-03       0.000000000000e+00       1.582942438702e+00       1.429445698882e-07       1.565244341342e-03       2.592005806499e-08 
   25       9.860831312684e+02       1.126286815810e-02       0.000000000000e+00       1.641982115728e+00       1.437817397861e-07       1.519556052287e-03       4.441210658330e-08 
   26       1.001048986794e+03       1.296534626336e-02       0.000000000000e+00       1.703796853097e+00       1.444915099051e-07       1.474625724319e-03      -1.900955995747e-07 
   27       1.016331257384e+03       1.484248912405e-02       0.000000000000e+00       1.765621719149e+00       1.451021884320e-07       1.432379393753e-03      -5.917127148569e-07 
   28       1.031928775192e+03       1.690181181340e-02       0.000000000000e+00       1.824014485086e+00       1.455760032948e-07       1.394476974962e-03      -1.033371078744e-06 
   29       1.047873617287e+03       1.913706489942e-02       0.000000000000e+00       1.876343987713e+00       1.459893389937e-07       1.360701100445e-03      -1.442112820403e-06 
   30       1.064106731118e+03       2.153417158260e-02       0.000000000000e+00       1.919823610039e+00       1.463633385875e-07       1.328703070057e-03      -1.749079507602e-06 
   31       1.080492049557e+03       2.408118752413e-02       0.000000000000e+00       1.951720412757e+00       1.466140660738e-07       1.295081820137e-03      -1.883662684464e-06 
   32       1.097068154898e+03       2.679512782245e-02       0.000000000000e+00       1.971551386221e+00       1.467883221486e-07       1.260466642453e-03      -1.843273913354e-06 
   33       1.113871580497e+03       2.970566814944e-02       0.000000000000e+00       1.979733969295e+00       1.469159104257e-07       1.226761954488e-03      -1.662297474687e-06 
   34       1.130883978043e+03       3.284338516655e-02       0.000000000000e+00       1.977002869142e+00       1.469590681439e-07       1.195575417210e-03      -1.394338950788e-06 
   35       1.148107989074e+03       3.622136007957e-02       0.000000000000e+00       1.964252370819e+00       1.469510829729e-07       1.167065139126e-03      -1.093907625035e-06 
   36       1.165504542718e+03       3.984725820417e-02       0.000000000000e+00       1.942682373087e+00       1.468989713339e-07       1.140342257271e-03      -8.309240294548e-07 
   37       1.183006519903e+03       4.372757765888e-02       0.000000000000e+00       1.913481175199e+00       1.467618023660e-07       1.114104322917e-03      -6.790558243363e-07 
   38       1.200659220885e+03       4.786581528727e-02       0.000000000000e+00       1.876510654860e+00       1.465796197431e-07       1.088491850686e-03      -6.465598574212e-07 
   39       1.218517835886e+03       5.226354083810e-02       0.000000000000e+00       1.831191939667e+00       1.463897303819e-07       1.063933470849e-03      -7.138502879132e-07 
   40       1.236605005796e+03       5.692075196980e-02       0.000000000000e+00       1.776846924223e+00       1.461782790090e-07       1.040621739587e-03      -8.484382696913e-07 
   41       1.254917217090e+03       6.183718777057e-02       0.000000000000e+00       1.712683680813e+00       1.458961839482e-07       1.018536416201e-03      -1.009921600679e-06 
   42       1.273455588857e+03       6.701703843902e-02       0.000000000000e+00       1.637766828460e+00       1.455669941429e-07       9.976681471861e-04      -1.172835349993e-06 
   43       1.292198737424e+03       7.246559032113e-02       0.000000000000e+00       1.551023620369e+00       1.452172167914e-07       9.778091283745e-04      -1.311567822894e-06 
   44       1.311090432713e+03       7.818793042647e-02       0.000000000000e+00       1.451240909923e+00       1.448391950069e-07       9.584364997582e-04      -1.393653012136e-06 
   45       1.330067178001e+03       8.418863300138e-02       0.000000000000e+00       1.337346941126e+00       1.444039081580e-07       9.389184457313e-04      -1.389117146600e-06 
   46       1.349158054792e+03       9.047072738024e-02       0.000000000000e+00       1.209377487658e+00       1.439366098642e-07       9.193716988842e-04      -1.305470083456e-06 
   47       1.368409477452e+03       9.703640721892e-02       0.000000000000e+00       1.067783892141e+00       1.434667650272e-07       9.000953715113e-04      -1.166884354891e-06 
   48       1.387855832342e+03       1.038872833780e-01       0.000000000000e+00       9.131756302884e-01       1.430026584273e-07       8.813328554299e-04      -1.006326519919e-06 
   49       1.407518157466e+03       1.110243579259e-01       0.000000000000e+00       7.463284180310e-01       1.425249650067e-07       8.632580590210e-04      -8.665688530123e-07 
   50       1.427405636117e+03       1.184483982202e-01       0.000000000000e+00       5.679763947042e-01       1.419993112338e-07       8.459765395297e-04      -7.898400654212e-07 
   51       1.447523618999e+03       1.261612391733e-01       0.000000000000e+00       3.781033626673e-01       1.414403527044e-07       8.295648014391e-04      -7.791821567941e-07 
   52       1.467865497312e+03       1.341647895344e-01       0.000000000000e+00       1.764731763628e-01       1.408691534846e-07       8.140214927414e-04      -8.233918706381e-07 
   53       1.488408919326e+03       1.424606557055e-01       0.000000000000e+00      -3.717315359003e-02       1.402930118590e-07       7.992389478429e-04      -9.066345141222e-07 
   54       1.509114602457e+03       1.510501345720e-01       0.000000000000e+00      -2.631195143916e-01       1.397016813465e-07       7.849879238269e-04      -1.007935193598e-06 
   55       1.529942857197e+03       1.599338957066e-01       0.000000000000e+00      -5.016475414626e-01       1.390761548054e-07       7.710008785394e-04      -1.105757441037e-06 
   56       1.550910687332e+03       1.691109519605e-01       0.000000000000e+00      -7.529425660649e-01       1.384306009843e-07       7.572967149616e-04      -1.195025914249e-06 
   57       1.572046793893e+03       1.785794205865e-01       0.000000000000e+00      -1.017167900786e+00       1.377834237369e-07       7.439475267182e-04      -1.275442681549e-06 
   58       1.593374619078e+03       1.883367926063e-01       0.000000000000e+00      -1.294492892318e+00       1.371439698515e-07       7.309837055238e-04      -1.346940539110e-06 
   59       1.614911848391e+03       1.983799135383e-01       0.000000000000e+00      -1.585093837654e+00       1.365102039479e-07       7.183876617748e-04      -1.409712665137e-06 
   60       1.636669912791e+03       2.087049641256e-01       0.000000000000e+00      -1.889154900278e+00       1.358661710643e-07       7.060872729950e-04      -1.464243460454e-06 
   61       1.658656037058e+03       2.193079678177e-01       0.000000000000e+00      -2.206831283066e+00       1.351904837912e-07       6.939946104220e-04      -1.511330343130e-06 
   62       1.680881048457e+03       2.301864899258e-01       0.000000000000e+00      -2.538127014717e+00       1.344930661303e-07       6.821535615491e-04      -1.552082206035e-06 
   63       1.703352445339e+03       2.413382873985e-01       0.000000000000e+00      -2.882991232132e+00       1.337896887875e-07       6.706294123576e-04      -1.587976965762e-06 
   64       1.726071596778e+03       2.527608132138e-01       0.000000000000e+00      -3.241353227242e+00       1.330909396642e-07       6.594644351262e-04      -1.620905409375e-06 
   65       1.749033325507e+03       2.644512138208e-01       0.000000000000e+00      -3.613122165641e+00       1.324009412698e-07       6.486745941286e-04      -1.653206929728e-06 
   66       1.772225490854e+03       2.764063265811e-01       0.000000000000e+00      -3.998186805207e+00       1.317159603076e-07       6.382461201927e-04      -1.687706415543e-06 
   67       1.795628571679e+03       2.886226772096e-01       0.000000000000e+00      -4.396415214734e+00       1.310229060026e-07       6.281319541198e-04      -1.727752296224e-06 
   68       1.819223464613e+03       3.010958373505e-01       0.000000000000e+00      -4.807643280250e+00       1.303058211450e-07       6.182753944293e-04      -1.776352117424e-06 
   69       1.843017645947e+03       3.138183518631e-01       0.000000000000e+00      -5.231638148541e+00       1.295723411874e-07       6.086980033018e-04      -1.833180763559e-06 
   70       1.867023585953e+03       3.267813850234e-01       0.000000000000e+00      -5.668126836821e+00       1.288348671911e-07       5.994316150083e-04      -1.896738978636e-06 
   71       1.891250799372e+03       3.399753046451e-01       0.000000000000e+00      -6.116806231694e+00       1.281027015494e-07       5.904914031917e-04      -1.965151430972e-06 
   72       1.915705638456e+03       3.533896631564e-01       0.000000000000e+00      -6.577342521024e+00       1.273813317663e-07       5.818738884710e-04      -2.036137149460e-06 
   73       1.940391086016e+03       3.670131786762e-01       0.000000000000e+00      -7.049370625799e+00       1.266716595324e-07       5.735548761442e-04      -2.106979090241e-06 
   74       1.965306548464e+03       3.808337160908e-01       0.000000000000e+00      -7.532493632001e+00       1.259691735224e-07       5.654873239898e-04      -2.174492833786e-06 
   75       1.990447648862e+03       3.948382681300e-01       0.000000000000e+00      -8.026282222474e+00       1.252630643345e-07       5.575991401666e-04      -2.234994412382e-06 
   76       2.015809753544e+03       4.090140282724e-01       0.000000000000e+00      -8.530336520320e+00       1.245410099009e-07       5.498171601629e-04      -2.285052827123e-06 
   77       2.041399751921e+03       4.233518771660e-01       0.000000000000e+00      -9.044485894645e+00       1.238078040338e-07       5.421518951853e-04      -2.324062509753e-06 
   78       2.067226058768e+03       4.378435005464e-01       0.000000000000e+00      -9.568624727451e+00       1.230717018060e-07       5.346317106808e-04      -2.352310863783e-06 
   79       2.093294942922e+03       4.524803572190e-01       0.000000000000e+00      -1.010265393460e+01       1.223388759020e-07       5.272777581727e-04      -2.370266662827e-06 
   80       2.119610396892e+03       4.672536825243e-01       0.000000000000e+00      -1.064648167748e+01       1.216129990581e-07       5.201031228897e-04      -2.378594383626e-06 
   81       2.146174006459e+03       4.821544918031e-01       0.000000000000e+00      -1.120002407468e+01       1.208947980906e-07       5.131119437120e-04      -2.378168932911e-06 
   82       2.172984820286e+03       4.971735838616e-01       0.000000000000e+00      -1.176320591364e+01       1.201815787777e-07       5.062985054321e-04      -2.370090768121e-06 
   83       2.200039219523e+03       5.123015444371e-01       0.000000000000e+00      -1.233596136232e+01       1.194667208601e-07       4.996463033320e-04      -2.355701411970e-06 
   84       2.227333056742e+03       5.275282926224e-01       0.000000000000e+00      -1.291816470892e+01       1.187428581635e-07       4.931364689091e-04      -2.336377121618e-06 
   85       2.254868765806e+03       5.428416261546e-01       0.000000000000e+00      -1.350940782957e+01       1.180138912137e-07       4.867776440141e-04      -2.312814599824e-06 
   86       2.282649197073e+03       5.582284401985e-01       0.000000000000e+00      -1.410918696279e+01       1.172859202627e-07       4.805817336725e-04      -2.285597528165e-06 
   87       2.310675361967e+03       5.736751587907e-01       0.000000000000e+00      -1.471696894388e+01       1.165636298595e-07       4.745546067211e-04      -2.255409015193e-06 
   88       2.338946340726e+03       5.891677306242e-01       0.000000000000e+00      -1.533219074063e+01       1.158500343628e-07       4.686955177675e-04      -2.223037344273e-06 
   89       2.367459190140e+03       6.046916248315e-01       0.000000000000e+00      -1.595425898896e+01       1.151462077968e-07       4.629965126694e-04      -2.189381850042e-06 
   90       2.396208851306e+03       6.202318267691e-01       0.000000000000e+00      -1.658254952862e+01       1.144509976828e-07       4.574418175352e-04      -2.155458923503e-06 
   91       2.425188057366e+03       6.357728338014e-01       0.000000000000e+00      -1.721640693880e+01       1.137607224783e-07       4.520072112441e-04      -2.122408145743e-06 
   92       2.454387241255e+03       6.512986510844e-01       0.000000000000e+00      -1.785514407387e+01       1.130688522589e-07       4.466593814870e-04      -2.091498550287e-06 
   93       2.483797412810e+03       6.667934246515e-01       0.000000000000e+00      -1.849809774935e+01       1.123687003337e-07       4.413666494947e-04      -2.063890079428e-06 
   94       2.513419485463e+03       6.822434587466e-01       0.000000000000e+00      -1.914480638908e+01       1.116632066067e-07       4.361354024701e-04      -2.039841752337e-06 
   95       2.543256188238e+03       6.976354955150e-01       0.000000000000e+00      -1.979485836205e+01       1.109574391975e-07       4.309806271615e-04      -2.019337321447e-06 
   96       2.573309170574e+03       7.129561092063e-01       0.000000000000e+00      -2.044783851496e+01       1.102556874474e-07       4.259150088021e-04      -2.002311297166e-06 
   97       2.603578950828e+03       7.281917107075e-01       0.000000000000e+00      -2.110332847866e+01       1.095613244484e-07       4.209486936644e-04      -1.988645335185e-06 
   98       2.634064864782e+03       7.433285520741e-01       0.000000000000e+00      -2.176090697463e+01       1.088766617669e-07       4.160890451629e-04      -1.978164536646e-06 
   99       2.664765014147e+03       7.583527310628e-01       0.000000000000e+00      -2.242015012135e+01       1.082027961932e-07       4.113403935064e-04      -1.970633661189e-06 
  100       2.695676215068e+03       7.732501956630e-01       0.000000000000e+00      -2.308063174078e+01       1.075394483504e-07       4.067037788999e-04      -1.965753252864e-06 
  101       2.726793946632e+03       7.880067486294e-01       0.000000000000e+00      -2.374192366475e+01       1.068847929943e-07       4.021766882951e-04      -1.963155678922e-06 
  102       2.758112299371e+03       8.026080520140e-01       0.000000000000e+00      -2.440359604146e+01       1.062352808387e-07       3.977527856908e-04      -1.962401081468e-06 
  103       2.789623923769e+03       8.170396316976e-01       0.000000000000e+00      -2.506521764184e+01       1.055854517360e-07       3.934216359822e-04      -1.962973241990e-06 
  104       2.821321581616e+03       8.312870896330e-01       0.000000000000e+00      -2.572634058516e+01       1.049299577121e-07       3.891728343712e-04      -1.964376283270e-06 
  105       2.853203149661e+03       8.453367634631e-01       0.000000000000e+00      -2.638645150578e+01       1.042707035765e-07       3.850099763844e-04      -1.966456535048e-06 
  106       2.885267199023e+03       8.591751648711e-01       0.000000000000e+00      -2.704501433032e+01       1.036112504312e-07       3.809389827291e-04      -1.969137828535e-06 
  107       2.917511419235e+03       8.727887865596e-01       0.000000000000e+00      -2.770148540297e+01       1.029546909282e-07       3.769637820739e-04      -1.972325163454e-06 
