# dimensionless total [l(l+1)/2pi] C_l's
# for l=2 to 3000, i.e. number of multipoles equal to 2999
#
# -> if you prefer output in CAMB/HealPix/LensPix units/order, set 'format' to 'camb' in input file
# -> if you don't want to see such a header, set 'headers' to 'no' in input file
# -> for CMB lensing (phi), these are C_l^phi-phi for the lensing potential.
#    Remember the conversion factors:
#    C_l^dd (deflection) = l(l+1) C_l^phi-phi
#    C_l^gg (shear/convergence) = 1/4 (l(l+1))^2 C_l^phi-phi
#
# 1:l     2:TT                     3:EE                     4:TE                     5:BB                     6:phiphi                 7:TPhi                   8:Ephi               
    2       1.450655647821e-10       6.127839996471e-15       4.347613720044e-13       0.000000000000e+00       8.623223774851e-09       4.730795203715e-10      -2.282790330613e-12 
    3       1.370126325281e-10       9.516271285833e-15       5.267632719026e-13       0.000000000000e+00       5.310760179788e-09       3.373624423061e-10      -1.925113358395e-12 
    4       1.291369800284e-10       1.012632253246e-14       5.272638005879e-13       0.000000000000e+00       3.700484643487e-09       2.564304663174e-10      -1.455185346399e-12 
    5       1.230215275281e-10       8.444669012529e-15       4.785849371449e-13       0.000000000000e+00       2.765143108471e-09       2.031293891535e-10      -1.003866216499e-12 
    6       1.186329875332e-10       5.820349982985e-15       4.084858961213e-13       0.000000000000e+00       2.161434625463e-09       1.656772246035e-10      -6.155691581980e-13 
    7       1.156801604307e-10       3.463672208613e-15       3.350770484602e-13       0.000000000000e+00       1.744177758354e-09       1.380920142763e-10      -3.096252066664e-13 
    8       1.137627464888e-10       1.942210293211e-15       2.686919936745e-13       0.000000000000e+00       1.441079537247e-09       1.170239902343e-10      -9.052602828052e-14 
    9       1.126917582329e-10       1.224721047433e-15       2.146970235924e-13       0.000000000000e+00       1.212790734235e-09       1.005159050231e-10       4.717438808720e-14 
   10       1.122697346033e-10       9.858169952107e-16       1.751796966835e-13       0.000000000000e+00       1.036118326106e-09       8.736651041336e-11       1.157646842400e-13 
   11       1.123122065215e-10       9.053708111337e-16       1.499898191183e-13       0.000000000000e+00       8.743203877863e-10       7.699296342679e-11       1.311338038229e-13 
   12       1.127747735729e-10       8.173136750115e-16       1.372656788900e-13       0.000000000000e+00       7.640610539036e-10       6.819163609846e-11       1.118373563973e-13 
   13       1.135054158247e-10       7.032971757222e-16       1.342065090339e-13       0.000000000000e+00       6.735410905877e-10       6.084296689173e-11       7.357393329865e-14 
   14       1.144401964282e-10       6.096880691397e-16       1.378189529308e-13       0.000000000000e+00       5.982123518217e-10       5.458092614426e-11       2.988571543273e-14 
   15       1.155848442431e-10       5.719922688391e-16       1.453079353100e-13       0.000000000000e+00       5.348010686548e-10       4.931598906450e-11      -9.131990335192e-15 
   16       1.168927789690e-10       5.874900479857e-16       1.544188010589e-13       0.000000000000e+00       4.808821395970e-10       4.483146597760e-11      -3.759963622513e-14 
   17       1.183142400119e-10       6.295698567746e-16       1.636739019470e-13       0.000000000000e+00       4.346235649821e-10       4.090554458129e-11      -5.335191148176e-14 
   18       1.198455697451e-10       6.735569352925e-16       1.721268554483e-13       0.000000000000e+00       3.944682652212e-10       3.742544473771e-11      -5.706447650193e-14 
   19       1.214902648187e-10       7.194473893746e-16       1.796145496815e-13       0.000000000000e+00       3.597803175332e-10       3.435728386061e-11      -5.114803402998e-14 
   20       1.231945009849e-10       7.765183994585e-16       1.862708623470e-13       0.000000000000e+00       3.292263435536e-10       3.161276593449e-11      -3.957910798293e-14 
   21       1.249697045832e-10       8.573145745542e-16       1.924762194356e-13       0.000000000000e+00       3.023274814593e-10       2.918627606263e-11      -2.579513379520e-14 
   22       1.268152622552e-10       9.743502017007e-16       1.987388528196e-13       0.000000000000e+00       2.784404521981e-10       2.705527101548e-11      -1.338834255169e-14 
   23       1.287240436856e-10       1.126460970361e-15       2.054006932592e-13       0.000000000000e+00       2.572372625904e-10       2.516983110648e-11      -4.271376532112e-15 
   24       1.306663215953e-10       1.307018764171e-15       2.127097136648e-13       0.000000000000e+00       2.382283590323e-10       2.344846503152e-11       3.567134481619e-16 
   25       1.326445417221e-10       1.512816128609e-15       2.206291116218e-13       0.000000000000e+00       2.211908642260e-10       2.186997121848e-11       5.994607380162e-16 
   26       1.346573831681e-10       1.741554621952e-15       2.289469127663e-13       0.000000000000e+00       2.058172314512e-10       2.042164551974e-11      -2.671570685710e-15 
   27       1.367126462781e-10       1.993753543673e-15       2.372798754341e-13       0.000000000000e+00       1.919235768242e-10       1.911484509394e-11      -7.936469341310e-15 
   28       1.388104256874e-10       2.270383653110e-15       2.451451726396e-13       0.000000000000e+00       1.792708138563e-10       1.795557049035e-11      -1.336550944015e-14 
   29       1.409550653970e-10       2.570592311919e-15       2.521853752863e-13       0.000000000000e+00       1.677943833098e-10       1.692607647188e-11      -1.803072469965e-14 
   30       1.431385720646e-10       2.892483525308e-15       2.580275902630e-13       0.000000000000e+00       1.573709674113e-10       1.598547533038e-11      -2.116513286141e-14 
   31       1.453425952730e-10       3.234451609594e-15       2.623068445094e-13       0.000000000000e+00       1.477879240710e-10       1.508583880655e-11      -2.207683687301e-14 
   32       1.475723593130e-10       3.598795375326e-15       2.649605699101e-13       0.000000000000e+00       1.389959989827e-10       1.423052944482e-11      -2.094021897871e-14 
   33       1.498328456460e-10       3.989522804604e-15       2.660477754300e-13       0.000000000000e+00       1.309333936289e-10       1.343643097339e-11      -1.831947050221e-14 
   34       1.521216142150e-10       4.410759245877e-15       2.656697837599e-13       0.000000000000e+00       1.234876814962e-10       1.271527993363e-11      -1.491913998258e-14 
   35       1.544388276820e-10       4.864241859414e-15       2.639451406147e-13       0.000000000000e+00       1.166208570981e-10       1.206240849948e-11      -1.137081197108e-14 
   36       1.567789300423e-10       5.350964156341e-15       2.610317353819e-13       0.000000000000e+00       1.102778505119e-10       1.146306295561e-11      -8.391362412403e-15 
   37       1.591326413141e-10       5.871771229751e-15       2.570866890270e-13       0.000000000000e+00       1.043761439047e-10       1.090003622620e-11      -6.658406636474e-15 
   38       1.615062406761e-10       6.427168174237e-15       2.520949500115e-13       0.000000000000e+00       9.890054369453e-11       1.037197389064e-11      -6.155915945422e-15 
   39       1.639075182027e-10       7.017428328414e-15       2.459848321824e-13       0.000000000000e+00       9.383374744500e-11       9.880491273844e-12      -6.611322704604e-15 
   40       1.663399690358e-10       7.642627374998e-15       2.386725955248e-13       0.000000000000e+00       8.912751665461e-11       9.425003165034e-12      -7.662714070013e-15 
   41       1.688035052682e-10       8.302794583151e-15       2.300580332144e-13       0.000000000000e+00       8.471949684468e-11       9.003083174158e-12      -8.912542872372e-15 
   42       1.712980815409e-10       8.998457975651e-15       2.200119834747e-13       0.000000000000e+00       8.059675140037e-11       8.612189158679e-12      -1.012482867830e-14 
   43       1.738204016313e-10       9.730254068176e-15       2.083830170805e-13       0.000000000000e+00       7.674836727210e-11       8.248144731078e-12      -1.108162197326e-14 
   44       1.763623919584e-10       1.049877649011e-14       1.949992279499e-13       0.000000000000e+00       7.314638855065e-11       7.904449170545e-12      -1.152648279583e-14 
   45       1.789150556670e-10       1.130456028272e-14       1.797082308881e-13       0.000000000000e+00       6.975581045655e-11       7.574279959096e-12      -1.124548766480e-14 
   46       1.814823996730e-10       1.214803410615e-14       1.625143677419e-13       0.000000000000e+00       6.657132182497e-11       7.257618349055e-12      -1.034408743089e-14 
   47       1.840709560580e-10       1.302955019970e-14       1.434803885004e-13       0.000000000000e+00       6.358923899221e-11       6.955962401293e-12      -9.049440348937e-15 
   48       1.866856992568e-10       1.394939396590e-14       1.226908545521e-13       0.000000000000e+00       6.079642355053e-11       6.670292875221e-12      -7.637100044042e-15 
   49       1.893298717851e-10       1.490778110247e-14       1.002532610392e-13       0.000000000000e+00       5.816957913364e-11       6.401026972624e-12      -6.433698135152e-15 
   50       1.920050691210e-10       1.590488121976e-14       7.626946104039e-14       0.000000000000e+00       5.568227198321e-11       6.148065912324e-12      -5.736225012375e-15 
   51       1.947119258243e-10       1.694090290433e-14       5.073818999551e-14       0.000000000000e+00       5.332987068724e-11       5.911060192398e-12      -5.537818330869e-15 
   52       1.974493144158e-10       1.801602678734e-14       2.362802269554e-14       0.000000000000e+00       5.111016050241e-11       5.689136373772e-12      -5.732179982663e-15 
   53       2.002139442678e-10       1.913037949405e-14      -5.095509729026e-15       0.000000000000e+00       4.901587955941e-11       5.480768694474e-12      -6.189259865732e-15 
   54       2.030001995266e-10       2.028403202215e-14      -3.547019501515e-14       0.000000000000e+00       4.703437912053e-11       5.283737229040e-12      -6.754013714823e-15 
   55       2.058024449986e-10       2.147698339544e-14      -6.753358430694e-14       0.000000000000e+00       4.515148450290e-11       5.095724839616e-12      -7.278744481239e-15 
   56       2.086229859144e-10       2.270911058457e-14      -1.013106609845e-13       0.000000000000e+00       4.336497934488e-11       4.916377540778e-12      -7.732380570189e-15 
   57       2.114658016495e-10       2.398020330515e-14      -1.368235905542e-13       0.000000000000e+00       4.167387603531e-11       4.745682686474e-12      -8.116168906738e-15 
   58       2.143341865197e-10       2.528997550482e-14      -1.740954061446e-13       0.000000000000e+00       4.007433628755e-11       4.583358438888e-12      -8.432534685085e-15 
   59       2.172306838574e-10       2.663806316798e-14      -2.131501344670e-13       0.000000000000e+00       3.855949505922e-11       4.428836815834e-12      -8.685147649358e-15 
   60       2.201570200895e-10       2.802402212043e-14      -2.540129217754e-13       0.000000000000e+00       3.711928447215e-11       4.281246738142e-12      -8.878988374405e-15 
   61       2.231143358996e-10       2.944738122581e-14      -2.967050103644e-13       0.000000000000e+00       3.574323066979e-11       4.139679424191e-12      -9.020621517758e-15 
   62       2.261040894860e-10       3.090782089464e-14      -3.412270654629e-13       0.000000000000e+00       3.442997633707e-11       4.004092536970e-12      -9.118937301444e-15 
   63       2.291272399911e-10       3.240503093021e-14      -3.875723123695e-13       0.000000000000e+00       3.317959288235e-11       3.874579823422e-12      -9.184694837608e-15 
   64       2.321839129290e-10       3.393865824345e-14      -4.357313189867e-13       0.000000000000e+00       3.199071597902e-11       3.751098839994e-12      -9.230401248700e-15 
   65       2.352733436892e-10       3.550830641509e-14      -4.856919583925e-13       0.000000000000e+00       3.086046381435e-11       3.633462958683e-12      -9.270384515313e-15 
   66       2.383938210397e-10       3.711353525789e-14      -5.374393714123e-13       0.000000000000e+00       2.978435533840e-11       3.521333373096e-12      -9.320866324006e-15 
   67       2.415426306304e-10       3.875386037885e-14      -5.909559291902e-13       0.000000000000e+00       2.875622851295e-11       3.414211104492e-12      -9.400034915147e-15 
   68       2.447171232975e-10       4.042867048298e-14      -6.462196635209e-13       0.000000000000e+00       2.776988637795e-11       3.311575106154e-12      -9.523167103983e-15 
   69       2.479182976265e-10       4.213696080541e-14      -7.031992721724e-13       0.000000000000e+00       2.682460529838e-11       3.213346940453e-12      -9.686683747812e-15 
   70       2.511478451531e-10       4.387754463097e-14      -7.618580296226e-13       0.000000000000e+00       2.592060110019e-11       3.119506329525e-12      -9.880979519520e-15 
   71       2.544070625595e-10       4.564912827748e-14      -8.221551545105e-13       0.000000000000e+00       2.505736311814e-11       3.029949206733e-12      -1.009503506843e-14 
   72       2.576968239459e-10       4.745030855415e-14      -8.840457330211e-13       0.000000000000e+00       2.423361663444e-11       2.944483459244e-12      -1.031636324855e-14 
   73       2.610175531001e-10       4.927957022004e-14      -9.474806422687e-13       0.000000000000e+00       2.344728531737e-11       2.862824670619e-12      -1.053095534673e-14 
   74       2.643691957692e-10       5.113528344240e-14      -1.012406473681e-12       0.000000000000e+00       2.269545365984e-11       2.784591863382e-12      -1.072322731097e-14 
   75       2.677511919298e-10       5.301570125516e-14      -1.078765456384e-12       0.000000000000e+00       2.197432941807e-11       2.709303241615e-12      -1.087596597858e-14 
   76       2.711629441890e-10       5.491910384077e-14      -1.146503802359e-12       0.000000000000e+00       2.128018513415e-11       2.636496954435e-12      -1.097408899027e-14 
   77       2.746053828942e-10       5.684426736937e-14      -1.215598668161e-12       0.000000000000e+00       2.061246394961e-11       2.566128221499e-12      -1.101683495711e-14 
   78       2.780796373765e-10       5.879007643436e-14      -1.286035993446e-12       0.000000000000e+00       1.997117454179e-11       2.498237226838e-12      -1.100770886461e-14 
   79       2.815865478675e-10       6.075538527512e-14      -1.357802609895e-12       0.000000000000e+00       1.935594508229e-11       2.432828856050e-12      -1.095088962800e-14 
   80       2.851266479440e-10       6.273901824610e-14      -1.430886337289e-12       0.000000000000e+00       1.876600575245e-11       2.369871002534e-12      -1.085125452317e-14 
   81       2.887001469723e-10       6.473977028601e-14      -1.505276079592e-12       0.000000000000e+00       1.820017125888e-11       2.309292873731e-12      -1.071440361757e-14 
   82       2.923069125519e-10       6.675640738694e-14      -1.580961921028e-12       0.000000000000e+00       1.765682334901e-11       2.250983297356e-12      -1.054668420121e-14 
   83       2.959464529607e-10       6.878766706353e-14      -1.657935222162e-12       0.000000000000e+00       1.713389332657e-11       2.194789027637e-12      -1.035521521754e-14 
   84       2.996182060747e-10       7.083219716531e-14      -1.736179254657e-12       0.000000000000e+00       1.662936493828e-11       2.140553583623e-12      -1.014692392935e-14 
   85       3.033224996180e-10       7.288835963132e-14      -1.815639111235e-12       0.000000000000e+00       1.614291712102e-11       2.088244872035e-12      -9.925418908694e-15 
   86       3.070597186547e-10       7.495439491107e-14      -1.896246960391e-12       0.000000000000e+00       1.567452279661e-11       2.037845714518e-12      -9.693641037556e-15 
   87       3.108300010446e-10       7.702848016999e-14      -1.977931002188e-12       0.000000000000e+00       1.522394410423e-11       1.989314199054e-12      -9.454812896434e-15 
   88       3.146332250377e-10       7.910872872235e-14      -2.060615405323e-12       0.000000000000e+00       1.479072366169e-11       1.942582667413e-12      -9.212446594168e-15 
   89       3.184689968700e-10       8.119318946412e-14      -2.144220244194e-12       0.000000000000e+00       1.437417582666e-11       1.897556702596e-12      -8.970351597789e-15 
   90       3.223366383582e-10       8.327984630592e-14      -2.228661435964e-12       0.000000000000e+00       1.397337795793e-11       1.854114116282e-12      -8.732642562365e-15 
   91       3.262351744948e-10       8.536661760588e-14      -2.313850677629e-12       0.000000000000e+00       1.358716167667e-11       1.812103936284e-12      -8.503747160847e-15 
   92       3.301633210437e-10       8.745135560252e-14      -2.399695383079e-12       0.000000000000e+00       1.321410412770e-11       1.771345393984e-12      -8.288413913910e-15 
   93       3.341198703492e-10       8.953193149384e-14      -2.486106218223e-12       0.000000000000e+00       1.285286560404e-11       1.731671929385e-12      -8.090758697875e-15 
   94       3.381049420844e-10       9.160650654332e-14      -2.573021139413e-12       0.000000000000e+00       1.250327948754e-11       1.693072976288e-12      -7.911223220043e-15 
   95       3.421188985560e-10       9.367330088946e-14      -2.660384870862e-12       0.000000000000e+00       1.216541084109e-11       1.655571728730e-12      -7.749171445910e-15 
   96       3.461619564046e-10       9.573051213312e-14      -2.748141669535e-12       0.000000000000e+00       1.183922072068e-11       1.619181634127e-12      -7.603804867653e-15 
   97       3.502341796667e-10       9.777631594611e-14      -2.836235366511e-12       0.000000000000e+00       1.152456219110e-11       1.583905998676e-12      -7.474157138066e-15 
   98       3.543354728357e-10       9.980886667967e-14      -2.924609408348e-12       0.000000000000e+00       1.122117634168e-11       1.549737592745e-12      -7.359088704495e-15 
   99       3.584655739232e-10       1.018262979731e-13      -3.013206898444e-12       0.000000000000e+00       1.092868830199e-11       1.516658256276e-12      -7.257281442777e-15 
  100       3.626240475209e-10       1.038267233622e-13      -3.101970638398e-12       0.000000000000e+00       1.064660325762e-11       1.484638504178e-12      -7.167233291176e-15 
  101       3.668102778610e-10       1.058082368880e-13      -3.190843169379e-12       0.000000000000e+00       1.037430246586e-11       1.453637131723e-12      -7.087252884321e-15 
  102       3.710234618786e-10       1.077689137050e-13      -3.279766813481e-12       0.000000000000e+00       1.011103927144e-11       1.423600819947e-12      -7.015454187139e-15 
  103       3.752626022722e-10       1.097068106902e-13      -3.368683715090e-12       0.000000000000e+00       9.855935122266e-12       1.394463741042e-12      -6.949751128799e-15 
  104       3.795267189147e-10       1.116199948881e-13      -3.457533777649e-12       0.000000000000e+00       9.608178742199e-12       1.366162980297e-12      -6.888210534864e-15 
  105       3.838155305540e-10       1.135066319137e-13      -3.546248067437e-12       0.000000000000e+00       9.367662872868e-12       1.338688024426e-12      -6.830176778700e-15 
  106       3.881288526932e-10       1.153649106814e-13      -3.634754591699e-12       0.000000000000e+00       9.134426518995e-12       1.312037253855e-12      -6.775289757458e-15 
  107       3.924663829801e-10       1.171930175385e-13      -3.722980341692e-12       0.000000000000e+00       8.908457741667e-12       1.286202505034e-12      -6.723138748964e-15 
