# dimensionless total [l(l+1)/2pi] C_l's
# for l=2 to 3000, i.e. number of multipoles equal to 2999
#
# -> if you prefer output in CAMB/HealPix/LensPix units/order, set 'format' to 'camb' in input file
# -> if you don't want to see such a header, set 'headers' to 'no' in input file
# -> for CMB lensing (phi), these are C_l^phi-phi for the lensing potential.
#    Remember the conversion factors:
#    C_l^dd (deflection) = l(l+1) C_l^phi-phi
#    C_l^gg (shear/convergence) = 1/4 (l(l+1))^2 C_l^phi-phi
#
# 1:l     2:TT                     3:EE                     4:TE                     5:BB                     6:phiphi                 7:TPhi                   8:Ephi               
    2       1.450771964322e-10       6.083907130833e-15       4.332371323018e-13       0.000000000000e+00       8.464235820400e-09       4.732829475096e-10      -2.273772290010e-12 
    3       1.370121376871e-10       9.445144452941e-15       5.248571009772e-13       0.000000000000e+00       5.310795421498e-09       3.379459629591e-10      -1.917614689254e-12 
    4       1.291417627159e-10       1.004730912409e-14       5.253012678512e-13       0.000000000000e+00       3.708520401811e-09       2.567293502606e-10      -1.449004496972e-12 
    5       1.230344894061e-10       8.377068322060e-15       4.767661351814e-13       0.000000000000e+00       2.772468520987e-09       2.032965802156e-10      -9.994906662441e-13 
    6       1.186524843079e-10       5.773585768595e-15       4.069534663741e-13       0.000000000000e+00       2.167451299939e-09       1.657776131025e-10      -6.127801533818e-13 
    7       1.157053899953e-10       3.436508077000e-15       3.338897357001e-13       0.000000000000e+00       1.748427527688e-09       1.381486926285e-10      -3.081279483890e-13 
    8       1.137922699947e-10       1.928038021640e-15       2.678534482468e-13       0.000000000000e+00       1.444093345725e-09       1.170580601090e-10      -8.995202598706e-14 
    9       1.127246639325e-10       1.216837083605e-15       2.141681047190e-13       0.000000000000e+00       1.215573529842e-09       1.005461528670e-10       4.717096367088e-14 
   10       1.123049805792e-10       9.801025866959e-16       1.748960696686e-13       0.000000000000e+00       1.039388297237e-09       8.740470589163e-11       1.154647127956e-13 
   11       1.123494767010e-10       9.003498265586e-16       1.498794751965e-13       0.000000000000e+00       8.743557314713e-10       7.699785219731e-11       1.307512875889e-13 
   12       1.128142417324e-10       8.129344281391e-16       1.372579176624e-13       0.000000000000e+00       7.640927765504e-10       6.819532612299e-11       1.115170977023e-13 
   13       1.135460173038e-10       6.997527649763e-16       1.342531731819e-13       0.000000000000e+00       6.735696744745e-10       6.084094606239e-11       7.340265251806e-14 
   14       1.144812785689e-10       6.068888973445e-16       1.378854947537e-13       0.000000000000e+00       5.982384288513e-10       5.457282748608e-11       2.988832124290e-14 
   15       1.156265857977e-10       5.696531375296e-16       1.453732963178e-13       0.000000000000e+00       5.348249145475e-10       4.930621155931e-11      -8.979452082964e-15 
   16       1.169368586126e-10       5.853958326522e-16       1.544892870529e-13       0.000000000000e+00       4.809040756670e-10       4.482450130508e-11      -3.734557746341e-14 
   17       1.183583556643e-10       6.277254447467e-16       1.637569413888e-13       0.000000000000e+00       4.346437852307e-10       4.090151274399e-11      -5.304925722213e-14 
   18       1.198904046937e-10       6.722020091259e-16       1.722306337331e-13       0.000000000000e+00       3.944860211663e-10       3.742128092481e-11      -5.676385514451e-14 
   19       1.215367993944e-10       7.187775371222e-16       1.797492632329e-13       0.000000000000e+00       3.597977808642e-10       3.435108687694e-11      -5.089356333199e-14 
   20       1.232422837502e-10       7.765794276773e-16       1.864463281162e-13       0.000000000000e+00       3.292429335801e-10       3.160509495179e-11      -3.940028552271e-14 
   21       1.250183834333e-10       8.580911378485e-16       1.926927968089e-13       0.000000000000e+00       3.023426480161e-10       2.917792731565e-11      -2.569474125606e-14 
   22       1.268650445632e-10       9.757908892125e-16       1.989859666739e-13       0.000000000000e+00       2.784545549656e-10       2.704658795894e-11      -1.333859290922e-14 
   23       1.287749895622e-10       1.128472656926e-15       2.056746205039e-13       0.000000000000e+00       2.572506204665e-10       2.516141327589e-11      -4.241532352919e-15 
   24       1.307181629819e-10       1.309478429389e-15       2.130165858486e-13       0.000000000000e+00       2.382409498137e-10       2.344124455286e-11       3.881811956624e-16 
   25       1.326972206001e-10       1.515644323662e-15       2.209615560018e-13       0.000000000000e+00       2.212026765939e-10       2.186423038154e-11       6.390264634235e-16 
   26       1.347111759849e-10       1.744746825811e-15       2.292799660638e-13       0.000000000000e+00       2.058283616881e-10       2.041678700912e-11      -2.631950130721e-15 
   27       1.367677113495e-10       1.997353966512e-15       2.375997391427e-13       0.000000000000e+00       1.919341116825e-10       1.911046767684e-11      -7.894491334183e-15 
   28       1.388666695364e-10       2.274477049272e-15       2.454576544616e-13       0.000000000000e+00       1.792807922350e-10       1.795177852599e-11      -1.330308716018e-14 
   29       1.410123671574e-10       2.575275087944e-15       2.524996363532e-13       0.000000000000e+00       1.678038379238e-10       1.692299624997e-11      -1.793551121825e-14 
   30       1.431968575101e-10       2.897853767422e-15       2.583506897304e-13       0.000000000000e+00       1.573799339651e-10       1.598308513259e-11      -2.103982996929e-14 
   31       1.454018300388e-10       3.240605737868e-15       2.626430429129e-13       0.000000000000e+00       1.477964375744e-10       1.508396511675e-11      -2.193923332286e-14 
   32       1.476324767635e-10       3.605820721313e-15       2.653116972860e-13       0.000000000000e+00       1.390040929438e-10       1.422897270261e-11      -2.080808274743e-14 
   33       1.498937139785e-10       3.997492173333e-15       2.664128276033e-13       0.000000000000e+00       1.309410966361e-10       1.343501076660e-11      -1.820482318351e-14 
   34       1.521830725514e-10       4.419734795680e-15       2.660453034179e-13       0.000000000000e+00       1.234950152469e-10       1.271386643134e-11      -1.482753737250e-14 
   35       1.545009079538e-10       4.874308926402e-15       2.643294686824e-13       0.000000000000e+00       1.166278436293e-10       1.206101819366e-11      -1.130497289775e-14 
   36       1.568419624181e-10       5.362246087131e-15       2.614267937897e-13       0.000000000000e+00       1.102845130135e-10       1.146191686701e-11      -8.351862861950e-15 
   37       1.591972037297e-10       5.884420729768e-15       2.574971881864e-13       0.000000000000e+00       1.043825052390e-10       1.089951937020e-11      -6.643347448308e-15 
   38       1.615727279448e-10       6.441303424602e-15       2.525220647534e-13       0.000000000000e+00       9.890662600748e-11       1.037230380064e-11      -6.161107464650e-15 
   39       1.639759620122e-10       7.033105412743e-15       2.464235246238e-13       0.000000000000e+00       9.383957075761e-11       9.881578410556e-12      -6.630083352657e-15 
   40       1.664099527169e-10       7.659826379087e-15       2.391103151445e-13       0.000000000000e+00       8.913309695670e-11       9.426383814265e-12      -7.685506143656e-15 
   41       1.688742272439e-10       8.321431212731e-15       2.304758665923e-13       0.000000000000e+00       8.472484549836e-11       9.003972006188e-12      -8.927816105852e-15 
   42       1.713689361886e-10       9.018483788757e-15       2.203943047360e-13       0.000000000000e+00       8.060187937037e-11       8.611947668485e-12      -1.012400434591e-14 
   43       1.738912019503e-10       9.751695490818e-15       2.087212700245e-13       0.000000000000e+00       7.675328583056e-11       8.246462146508e-12      -1.106125325507e-14 
   44       1.764334576463e-10       1.052175087786e-14       1.952935093011e-13       0.000000000000e+00       7.315110858933e-11       7.901415459974e-12      -1.148936988388e-14 
   45       1.789871585220e-10       1.132926550628e-14       1.799667963463e-13       0.000000000000e+00       6.976034210530e-11       7.570365483325e-12      -1.120025338381e-14 
   46       1.815562180755e-10       1.217464703365e-14       1.627459452249e-13       0.000000000000e+00       6.657567523785e-11       7.253329960876e-12      -1.029943088399e-14 
   47       1.841468822889e-10       1.305819066026e-14       1.436916931197e-13       0.000000000000e+00       6.359342421419e-11       6.951733733137e-12      -9.012233135855e-15 
   48       1.867637785352e-10       1.398011315966e-14       1.228860571858e-13       0.000000000000e+00       6.080045001162e-11       6.666462652344e-12      -7.611923372393e-15 
   49       1.894097378988e-10       1.494054938018e-14       1.004334255269e-13       0.000000000000e+00       5.817345510477e-11       6.397816030266e-12      -6.422353132062e-15 
   50       1.920859961757e-10       1.593960258517e-14       7.643259128344e-14       0.000000000000e+00       5.568600440541e-11       6.145572942269e-12      -5.737771094067e-15 
   51       1.947932734101e-10       1.697751969880e-14       5.088137473863e-14       0.000000000000e+00       5.333346632895e-11       5.909322677864e-12      -5.550426900156e-15 
   52       1.975306802557e-10       1.805455758148e-14       2.374799778159e-14       0.000000000000e+00       5.111362608296e-11       5.688141790360e-12      -5.753619223795e-15 
   53       2.002952088400e-10       1.917093240677e-14      -5.002391792256e-15       0.000000000000e+00       4.901922147415e-11       5.480446886966e-12      -6.216867075794e-15 
   54       2.030815729050e-10       2.032681869651e-14      -3.540799668737e-14       0.000000000000e+00       4.703760314696e-11       5.283952434551e-12      -6.784666946359e-15 
   55       2.058844314333e-10       2.152230655514e-14      -6.750671658621e-14       0.000000000000e+00       4.515459571605e-11       5.096284484573e-12      -7.309011762909e-15 
   56       2.087060726242e-10       2.275726314204e-14      -1.013234915192e-13       0.000000000000e+00       4.336798276450e-11       4.917097049221e-12      -7.759255098571e-15 
   57       2.115503587762e-10       2.403143509587e-14      -1.368802984636e-13       0.000000000000e+00       4.167677668992e-11       4.746407572005e-12      -8.137362628340e-15 
   58       2.144204445060e-10       2.534448478340e-14      -1.741999264061e-13       0.000000000000e+00       4.007713905655e-11       4.583970795078e-12      -8.446612485793e-15 
   59       2.173187097522e-10       2.669598770600e-14      -2.133060996353e-13       0.000000000000e+00       3.856220450506e-11       4.429262120279e-12      -8.691667800561e-15 
   60       2.202466927792e-10       2.808542990620e-14      -2.542236010340e-13       0.000000000000e+00       3.712190466238e-11       4.281460970184e-12      -8.878649235797e-15 
   61       2.232053658256e-10       2.951227625954e-14      -2.969733162554e-13       0.000000000000e+00       3.574576514839e-11       4.139705858454e-12      -9.015146488979e-15 
   62       2.261961859167e-10       3.097619912995e-14      -3.415557874415e-13       0.000000000000e+00       3.443242860480e-11       4.003964146799e-12      -9.110091709754e-15 
   63       2.292201621056e-10       3.247689666994e-14      -3.879641699441e-13       0.000000000000e+00       3.318196646515e-11       3.874328876654e-12      -9.173986259094e-15 
   64       2.322774786286e-10       3.401402612673e-14      -4.361889485779e-13       0.000000000000e+00       3.199301434235e-11       3.750756428003e-12      -9.219028441214e-15 
   65       2.353674387810e-10       3.558720349796e-14      -4.862178997552e-13       0.000000000000e+00       3.086269027267e-11       3.633058501555e-12      -9.259184104392e-15 
   66       2.384884087923e-10       3.719600318730e-14      -5.380360536223e-13       0.000000000000e+00       2.978651295966e-11       3.520894100921e-12      -9.310257241796e-15 
   67       2.416377617022e-10       3.883995766019e-14      -5.916256561949e-13       0.000000000000e+00       2.875832001812e-11       3.413761514796e-12      -9.389960592301e-15 
   68       2.448129267704e-10       4.051847099269e-14      -6.469646226535e-13       0.000000000000e+00       2.777191414003e-11       3.311136692574e-12      -9.513146937317e-15 
   69       2.480149100812e-10       4.223053994645e-14      -7.040216179381e-13       0.000000000000e+00       2.682657167442e-11       3.212938852362e-12      -9.676223129847e-15 
   70       2.512453897596e-10       4.397497549795e-14      -7.627599067512e-13       0.000000000000e+00       2.592250848915e-11       3.119145247325e-12      -9.869690257403e-15 
   71       2.545056462041e-10       4.575048144375e-14      -8.231386991190e-13       0.000000000000e+00       2.505921391811e-11       3.029648922676e-12      -1.008265130289e-14 
   72       2.577965342376e-10       4.755565185397e-14      -8.851130739377e-13       0.000000000000e+00       2.423541319754e-11       2.944254441933e-12      -1.030275797808e-14 
   73       2.611184552568e-10       4.938896852571e-14      -9.486339025196e-13       0.000000000000e+00       2.344902990234e-11       2.862673613170e-12      -1.051615755703e-14 
   74       2.644713293827e-10       5.124879843656e-14      -1.013647772140e-12       0.000000000000e+00       2.269714838242e-11       2.784521215279e-12      -1.070743970958e-14 
   75       2.678545676106e-10       5.313339119799e-14      -1.080096909583e-12       0.000000000000e+00       2.197597619903e-11       2.709310724220e-12      -1.085958333477e-14 
   76       2.712675463881e-10       5.504102343623e-14      -1.147927503409e-12       0.000000000000e+00       2.128178569736e-11       2.636575912670e-12      -1.095767043973e-14 
   77       2.747111928234e-10       5.697046795995e-14      -1.217116591816e-12       0.000000000000e+00       2.061401998565e-11       2.566270696118e-12      -1.100092717132e-14 
   78       2.781866392926e-10       5.892060591849e-14      -1.287649961789e-12       0.000000000000e+00       1.997268773224e-11       2.498434774861e-12      -1.099279213325e-14 
   79       2.816947293935e-10       6.089028792317e-14      -1.359514279574e-12       0.000000000000e+00       1.935741707310e-11       2.433072563863e-12      -1.093736782365e-14 
   80       2.852360003978e-10       6.287833451364e-14      -1.432697186448e-12       0.000000000000e+00       1.876743812625e-11       2.370151500145e-12      -1.083944471486e-14 
   81       2.888106657042e-10       6.488353662418e-14      -1.507187394488e-12       0.000000000000e+00       1.820156550596e-11       2.309600350181e-12      -1.070452533322e-14 
   82       2.924185972914e-10       6.690465605003e-14      -1.582974782338e-12       0.000000000000e+00       1.765818083716e-11       2.251307517285e-12      -1.053884833882e-14 
   83       2.960593081705e-10       6.894042591371e-14      -1.660050490982e-12       0.000000000000e+00       1.713521526967e-11       2.195119349003e-12      -1.034941260529e-14 
   84       2.997322402223e-10       7.098948962740e-14      -1.738397603378e-12       0.000000000000e+00       1.663065240385e-11       2.140879204744e-12      -1.014303648070e-14 
   85       3.034377209715e-10       7.305020513242e-14      -1.817961198294e-12       0.000000000000e+00       1.614417116466e-11       2.088555807726e-12      -9.923303635767e-15 
   86       3.071761339909e-10       7.512080891092e-14      -1.898673484538e-12       0.000000000000e+00       1.567574448847e-11       2.038133166682e-12      -9.693152696924e-15 
   87       3.109476153880e-10       7.719947404531e-14      -1.980462714132e-12       0.000000000000e+00       1.522513451666e-11       1.989570714773e-12      -9.455804796560e-15 
   88       3.147520413902e-10       7.928430965101e-14      -2.063253119821e-12       0.000000000000e+00       1.479188385633e-11       1.942802302021e-12      -9.214771437339e-15 
   89       3.185890159299e-10       8.137336030899e-14      -2.146964852595e-12       0.000000000000e+00       1.437530684105e-11       1.897735187751e-12      -8.973862356530e-15 
   90       3.224578582303e-10       8.346460549846e-14      -2.231513919198e-12       0.000000000000e+00       1.397448079154e-11       1.854249033026e-12      -8.737193390338e-15 
   91       3.263575903902e-10       8.555595902954e-14      -2.316812119645e-12       0.000000000000e+00       1.358823727644e-11       1.812194893086e-12      -8.509194338235e-15 
   92       3.302869249696e-10       8.764526847584e-14      -2.402766984736e-12       0.000000000000e+00       1.321515337294e-11       1.771394209784e-12      -8.294616827291e-15 
   93       3.342446521621e-10       8.973040036887e-14      -2.489289269730e-12       0.000000000000e+00       1.285388930837e-11       1.731682473223e-12      -8.097581186289e-15 
   94       3.382308948883e-10       9.180951167053e-14      -2.576316860315e-12       0.000000000000e+00       1.250427845540e-11       1.693049906820e-12      -7.918536007769e-15 
   95       3.422460203930e-10       9.388081827113e-14      -2.663794363300e-12       0.000000000000e+00       1.216638587692e-11       1.655520176858e-12      -7.756853716501e-15 
   96       3.462902506412e-10       9.594251346728e-14      -2.751665911499e-12       0.000000000000e+00       1.184017262107e-11       1.619107219486e-12      -7.611745559325e-15 
   97       3.503636553883e-10       9.799276857181e-14      -2.839875204972e-12       0.000000000000e+00       1.152549173663e-11       1.583814846326e-12      -7.482256278133e-15 
   98       3.544661452503e-10       1.000297335237e-13      -2.928365552261e-12       0.000000000000e+00       1.122208428848e-11       1.549636350076e-12      -7.367258782836e-15 
   99       3.585974647745e-10       1.020515374978e-13      -3.017079911625e-12       0.000000000000e+00       1.092957537305e-11       1.516554110116e-12      -7.265448824349e-15 
  100       3.627571855096e-10       1.040562895149e-13      -3.105960932277e-12       0.000000000000e+00       1.064747013370e-11       1.484539198108e-12      -7.175339667558e-15 
  101       3.669446990762e-10       1.060420790515e-13      -3.194950995623e-12       0.000000000000e+00       1.037514977619e-11       1.453550983606e-12      -7.095256764300e-15 
  102       3.711592102370e-10       1.080069766497e-13      -3.283992256499e-12       0.000000000000e+00       1.011186758411e-11       1.423536739655e-12      -7.023332426334e-15 
  103       3.753997299677e-10       1.099490345271e-13      -3.373026684404e-12       0.000000000000e+00       9.856744934280e-12       1.394431248397e-12      -6.957500498325e-15 
  104       3.796652842221e-10       1.118663151383e-13      -3.461994008022e-12       0.000000000000e+00       9.608970486453e-12       1.366171894824e-12      -6.895845321268e-15 
  105       3.839555872744e-10       1.137569799398e-13      -3.550825143732e-12       0.000000000000e+00       9.368436979019e-12       1.338747119615e-12      -6.837713783074e-15 
  106       3.882704468402e-10       1.156192138085e-13      -3.639447952129e-12       0.000000000000e+00       9.135183427190e-12       1.312153806773e-12      -6.782744258045e-15 
  107       3.926095519996e-10       1.174511990672e-13      -3.727789273448e-12       0.000000000000e+00       8.909197899633e-12       1.286382158468e-12      -6.730524314579e-15 
