# dimensionless total lensed [l(l+1)/2pi] C_l's
# for l=2 to 2500, i.e. number of multipoles equal to 2499
#
# -> if you prefer output in CAMB/HealPix/LensPix units/order, set 'format' to 'camb' in input file
# -> if you don't want to see such a header, set 'headers' to 'no' in input file
# -> for CMB lensing (phi), these are C_l^phi-phi for the lensing potential.
#    Remember the conversion factors:
#    C_l^dd (deflection) = l(l+1) C_l^phi-phi
#    C_l^gg (shear/convergence) = 1/4 (l(l+1))^2 C_l^phi-phi
#
# 1:l     2:TT                     3:EE                     4:TE                     5:BB                     6:phiphi                 7:TPhi                   8:Ephi               
    2       1.450660580958e-10       6.128081123380e-15       4.347613673389e-13       2.411268676396e-19       8.623223774851e-09       4.730795203715e-10      -2.282790330613e-12 
    3       1.370136168608e-10       9.516753704698e-15       5.267632511302e-13       4.824184540694e-19       5.310760179788e-09       3.373624423061e-10      -1.925113358395e-12 
    4       1.291386155433e-10       1.012712692622e-14       5.272637409745e-13       8.043917451327e-19       3.700484643487e-09       2.564304663174e-10      -1.455185346399e-12 
    5       1.230239714931e-10       8.445876271913e-15       4.785848015473e-13       1.207252487487e-18       2.765143108471e-09       2.031293891535e-10      -1.003866216499e-12 
    6       1.186363937343e-10       5.822041248119e-15       4.084856299776e-13       1.691246360341e-18       2.161434625463e-09       1.656772246035e-10      -6.155691581980e-13 
    7       1.156846786691e-10       3.465928904147e-15       3.350765771351e-13       2.256651954858e-18       1.744177758354e-09       1.380920142763e-10      -3.096252066664e-13 
    8       1.137685221732e-10       1.945114156020e-15       2.686912202033e-13       2.903772964320e-18       1.441079537247e-09       1.170239902343e-10      -9.052602828052e-14 
    9       1.126989320723e-10       1.228354146161e-15       2.146958268482e-13       3.632929878908e-18       1.212790734235e-09       1.005159050231e-10       4.717438808720e-14 
   10       1.122784424059e-10       9.902617411427e-16       1.751779299797e-13       4.444451495749e-18       1.036118326106e-09       8.736651041336e-11       1.157646842400e-13 
   11       1.123225790977e-10       9.107099600866e-16       1.499873092389e-13       5.338666559293e-18       8.743203877863e-10       7.699296342679e-11       1.311338038229e-13 
   12       1.127869367407e-10       8.236303201890e-16       1.372622255313e-13       6.315895838941e-18       7.640610539036e-10       6.819163609846e-11       1.118373563973e-13 
   13       1.135194905098e-10       7.106747316957e-16       1.342018846234e-13       7.376444930551e-18       6.735410905877e-10       6.084296689173e-11       7.357393329865e-14 
   14       1.144562988496e-10       6.182102473583e-16       1.378129027813e-13       8.520598036743e-18       5.982123518217e-10       5.458092614426e-11       2.988571543273e-14 
   15       1.156030861720e-10       5.817430452865e-16       1.453001780578e-13       9.748612939235e-18       5.348010686548e-10       4.931598906450e-11      -9.131990335192e-15 
   16       1.169132680468e-10       5.985536238030e-16       1.544090293298e-13       1.106071732632e-17       4.808821395970e-10       4.483146597760e-11      -3.759963622513e-14 
   17       1.183370801110e-10       6.420306128421e-16       1.636617831921e-13       1.245710658223e-17       4.346235649821e-10       4.090554458129e-11      -5.335191148176e-14 
   18       1.198708613644e-10       6.874993815031e-16       1.721120329204e-13       1.393794237988e-17       3.944682652212e-10       3.742544473771e-11      -5.706447650193e-14 
   19       1.215181054510e-10       7.349561122678e-16       1.795966433305e-13       1.550335699447e-17       3.597803175332e-10       3.435728386061e-11      -5.114803402998e-14 
   20       1.232249855592e-10       7.936780029470e-16       1.862494700368e-13       1.715344779300e-17       3.292263435536e-10       3.161276593449e-11      -3.957910798293e-14 
   21       1.250029257739e-10       8.762096262080e-16       1.924509177402e-13       1.888829111227e-17       3.023274814593e-10       2.918627606263e-11      -2.579513379520e-14 
   22       1.268513108748e-10       9.950651715131e-16       1.987091981835e-13       2.070793580853e-17       2.784404521981e-10       2.705527101548e-11      -1.338834255169e-14 
   23       1.287630089020e-10       1.149080179845e-15       2.053662227034e-13       2.261242019876e-17       2.572372625904e-10       2.516983110648e-11      -4.271376532112e-15 
   24       1.307082912334e-10       1.331626327699e-15       2.126699458646e-13       2.460176556050e-17       2.382283590323e-10       2.344846503152e-11       3.567134481619e-16 
   25       1.326896023389e-10       1.539495910777e-15       2.205835475517e-13       2.667599634926e-17       2.211908642260e-10       2.186997121848e-11       5.994607380162e-16 
   26       1.347056202327e-10       1.770390185078e-15       2.288950367281e-13       2.883513228664e-17       2.058172314512e-10       2.042164551974e-11      -2.671570685710e-15 
   27       1.367641441412e-10       2.024828111529e-15       2.372211558276e-13       3.107920627295e-17       1.919235768242e-10       1.911484509394e-11      -7.936469341310e-15 
   28       1.388652676168e-10       2.303780068157e-15       2.450790630964e-13       3.340825923232e-17       1.792708138563e-10       1.795557049035e-11      -1.336550944015e-14 
   29       1.410133333139e-10       2.606393020296e-15       2.521113158693e-13       3.582236188043e-17       1.677943833098e-10       1.692607647188e-11      -1.803072469965e-14 
   30       1.432003464838e-10       2.930770539936e-15       2.579450088495e-13       3.832160137384e-17       1.573709674113e-10       1.598547533038e-11      -2.116513286141e-14 
   31       1.454079552329e-10       3.275306473730e-15       2.622151585459e-13       4.090608117390e-17       1.477879240710e-10       1.508583880655e-11      -2.207683687301e-14 
   32       1.476413819805e-10       3.642299160480e-15       2.648591891142e-13       4.357593784717e-17       1.389959989827e-10       1.423052944482e-11      -2.094021897871e-14 
   33       1.499056060899e-10       4.035756087174e-15       2.659361040824e-13       4.633133463190e-17       1.309333936289e-10       1.343643097339e-11      -1.831947050221e-14 
   34       1.521981852122e-10       4.459802079443e-15       2.655472234399e-13       4.917245759684e-17       1.234876814962e-10       1.271527993363e-11      -1.491913998258e-14 
   35       1.545192794300e-10       4.916173761413e-15       2.638110949253e-13       5.209950858731e-17       1.166208570981e-10       1.206240849948e-11      -1.137081197108e-14 
   36       1.568633298905e-10       5.405864086523e-15       2.608856136432e-13       5.511271376754e-17       1.102778505119e-10       1.146306295561e-11      -8.391362412403e-15 
   37       1.592210535641e-10       5.929717558412e-15       2.569279105636e-13       5.821231512996e-17       1.043761439047e-10       1.090003622620e-11      -6.658406636474e-15 
   38       1.615987266137e-10       6.488238625709e-15       2.519229516952e-13       6.139852720778e-17       9.890054369453e-11       1.037197389064e-11      -6.155915945422e-15 
   39       1.640041359394e-10       7.081699941750e-15       2.457990741670e-13       6.467156870448e-17       9.383374744500e-11       9.880491273844e-12      -6.611322704604e-15 
   40       1.664407732628e-10       7.710176471464e-15       2.384725664252e-13       6.803167559731e-17       8.912751665461e-11       9.425003165034e-12      -7.662714070013e-15 
   41       1.689085471611e-10       8.373696711396e-15       2.298432564129e-13       7.147908036844e-17       8.471949684468e-11       9.003083174158e-12      -8.912542872372e-15 
   42       1.714074092218e-10       9.072787780807e-15       2.197820266520e-13       7.501393873994e-17       8.059675140037e-11       8.612189158679e-12      -1.012482867830e-14 
   43       1.739340602230e-10       9.808085212503e-15       2.081374999901e-13       7.863638106819e-17       7.674836727210e-11       8.248144731078e-12      -1.108162197326e-14 
   44       1.764804234769e-10       1.058018159260e-14       1.947378297079e-13       8.234653190378e-17       7.314638855065e-11       7.904449170545e-12      -1.152648279583e-14 
   45       1.790374991012e-10       1.138961082329e-14       1.794306972814e-13       8.614448976068e-17       6.975581045655e-11       7.574279959096e-12      -1.124548766480e-14 
   46       1.816092917064e-10       1.223680021439e-14       1.622205178701e-13       9.003026002329e-17       6.657132182497e-11       7.257618349055e-12      -1.034408743089e-14 
   47       1.842023313280e-10       1.312210052213e-14       1.431701224122e-13       9.400380139502e-17       6.358923899221e-11       6.955962401293e-12      -9.049440348937e-15 
   48       1.868215904404e-10       1.404579556090e-14       1.223641614426e-13       9.806504259200e-17       6.079642355053e-11       6.670292875221e-12      -7.637100044042e-15 
   49       1.894703096883e-10       1.500809933186e-14       9.991022774084e-14       1.022138808531e-16       5.816957913364e-11       6.401026972624e-12      -6.433698135152e-15 
   50       1.921500828392e-10       1.600917961845e-14       7.591027861048e-14       1.064501793291e-16       5.568227198321e-11       6.148065912324e-12      -5.736225012375e-15 
   51       1.948615431329e-10       1.704924298524e-14       5.036315330696e-14       1.107737618702e-16       5.332987068724e-11       5.911060192398e-12      -5.537818330869e-15 
   52       1.976035619988e-10       1.812846788766e-14       2.323753563273e-14       1.151844142484e-16       5.111016050241e-11       5.689136373772e-12      -5.732179982663e-15 
   53       2.003728478925e-10       1.924697863428e-14      -5.500926858194e-15       1.196818836486e-16       4.901587955941e-11       5.480768694474e-12      -6.189259865732e-15 
   54       2.031637842247e-10       2.040484376090e-14      -3.588989787706e-14       1.242658771264e-16       4.703437912053e-11       5.283737229040e-12      -6.754013714823e-15 
   55       2.059707350542e-10       2.160205972649e-14      -6.796680069277e-14       1.289360924583e-16       4.515148450290e-11       5.095724839616e-12      -7.278744481239e-15 
   56       2.087960041986e-10       2.283850098281e-14      -1.017564997465e-13       1.336923232038e-16       4.336497934488e-11       4.916377540778e-12      -7.732380570189e-15 
   57       2.116435694589e-10       2.411395465312e-14      -1.372810405993e-13       1.385343770408e-16       4.167387603531e-11       4.745682686474e-12      -8.116168906738e-15 
   58       2.145167235994e-10       2.542813197367e-14      -1.745633317274e-13       1.434620453849e-16       4.007433628755e-11       4.583358438888e-12      -8.432534685085e-15 
   59       2.174180084239e-10       2.678066609593e-14      -2.136272704462e-13       1.484751031083e-16       3.855949505922e-11       4.428836815834e-12      -8.685147649358e-15 
   60       2.203491488522e-10       2.817110988881e-14      -2.544978688336e-13       1.535733082598e-16       3.711928447215e-11       4.281246738142e-12      -8.878988374405e-15 
   61       2.233112837568e-10       2.959898927438e-14      -2.971962332926e-13       1.587564491615e-16       3.574323066979e-11       4.139679424191e-12      -9.020621517758e-15 
   62       2.263058681598e-10       3.106398219658e-14      -3.417229015252e-13       1.640244986881e-16       3.442997633707e-11       4.004092536970e-12      -9.118937301444e-15 
   63       2.293338574822e-10       3.256577610677e-14      -3.880709717961e-13       1.693774942776e-16       3.317959288235e-11       3.874579823422e-12      -9.184694837608e-15 
   64       2.323953732655e-10       3.410401554799e-14      -4.362308826250e-13       1.748154948068e-16       3.199071597902e-11       3.751098839994e-12      -9.230401248700e-15 
   65       2.354896466634e-10       3.567830171921e-14      -4.861903754201e-13       1.803385818152e-16       3.086046381435e-11       3.633462958683e-12      -9.270384515313e-15 
   66       2.386149619346e-10       3.728819203958e-14      -5.379344571122e-13       1.859468607266e-16       2.978435533840e-11       3.521333373096e-12      -9.320866324006e-15 
   67       2.417685999348e-10       3.893319971273e-14      -5.914453627877e-13       1.916404620727e-16       2.875622851295e-11       3.414211104492e-12      -9.400034915147e-15 
   68       2.449479065112e-10       4.061271116356e-14      -6.467009846097e-13       1.974195399785e-16       2.776988637795e-11       3.311575106154e-12      -9.523167103983e-15 
   69       2.481538753836e-10       4.232571989621e-14      -7.036698724403e-13       2.032842645309e-16       2.682460529838e-11       3.213346940453e-12      -9.686683747812e-15 
   70       2.513881930723e-10       4.407103767812e-14      -7.623151484318e-13       2.092348300534e-16       2.592060110019e-11       3.119506329525e-12      -9.880979519520e-15 
   71       2.546521509902e-10       4.584736940537e-14      -8.225958758898e-13       2.152714588379e-16       2.505736311814e-11       3.029949206733e-12      -1.009503506843e-14 
   72       2.579466177052e-10       4.765331056640e-14      -8.844669826820e-13       2.213944022975e-16       2.423361663444e-11       2.944483459244e-12      -1.031636324855e-14 
   73       2.612720112023e-10       4.948734470590e-14      -9.478791846455e-13       2.276039421192e-16       2.344728531737e-11       2.862824670619e-12      -1.053095534673e-14 
   74       2.646282711459e-10       5.134784088859e-14      -1.012778908996e-12       2.339003914166e-16       2.269545365984e-11       2.784591863382e-12      -1.072322731097e-14 
   75       2.680148311416e-10       5.323305116305e-14      -1.079108217734e-12       2.402840958825e-16       2.197432941807e-11       2.709303241615e-12      -1.087596597858e-14 
   76       2.714310876668e-10       5.514125480585e-14      -1.146813151701e-12       2.467553812295e-16       2.128018513415e-11       2.636496954435e-12      -1.097408899027e-14 
   77       2.748779668962e-10       5.707122702752e-14      -1.215870688691e-12       2.533143818980e-16       2.061246394961e-11       2.566128221499e-12      -1.101683495711e-14 
   78       2.783565945279e-10       5.902185152673e-14      -1.286266584967e-12       2.599611830614e-16       1.997117454179e-11       2.498237226838e-12      -1.100770886461e-14 
   79       2.818678071933e-10       6.099198175847e-14      -1.357987485255e-12       2.666958716176e-16       1.935594508229e-11       2.432828856050e-12      -1.095088962800e-14 
   80       2.854121349043e-10       6.298044140763e-14      -1.431021018820e-12       2.735185362404e-16       1.876600575245e-11       2.369871002534e-12      -1.085125452317e-14 
   81       2.889897834997e-10       6.498602486275e-14      -1.505355895555e-12       2.804292674308e-16       1.820017125888e-11       2.309292873731e-12      -1.071440361757e-14 
   82       2.926006170919e-10       6.700749768964e-14      -1.580982002051e-12       2.874281575681e-16       1.765682334901e-11       2.250983297356e-12      -1.054668420121e-14 
   83       2.962441405143e-10       6.904359710507e-14      -1.657890497685e-12       2.945153009616e-16       1.713389332657e-11       2.194789027637e-12      -1.035521521754e-14 
   84       2.999197882263e-10       7.109297073751e-14      -1.736064457455e-12       3.016908011218e-16       1.662936493828e-11       2.140553583623e-12      -1.014692392935e-14 
   85       3.036278845117e-10       7.315398020729e-14      -1.815448807716e-12       3.089547938483e-16       1.614291712102e-11       2.088244872035e-12      -9.925418908694e-15 
   86       3.073688110181e-10       7.522486570126e-14      -1.895975559410e-12       3.163074280814e-16       1.567452279661e-11       2.037845714518e-12      -9.693641037556e-15 
   87       3.111427022312e-10       7.730380423530e-14      -1.977572756305e-12       3.237488591922e-16       1.522394410423e-11       1.989314199054e-12      -9.454812896434e-15 
   88       3.149494330719e-10       7.938890909078e-14      -2.060164412189e-12       3.312792491550e-16       1.479072366169e-11       1.942582667413e-12      -9.212446594168e-15 
   89       3.187886064938e-10       8.147822925110e-14      -2.143670448081e-12       3.388987667202e-16       1.437417582666e-11       1.897556702596e-12      -8.970351597789e-15 
   90       3.226595410805e-10       8.356974883807e-14      -2.228006629428e-12       3.466075875867e-16       1.397337795793e-11       1.854114116282e-12      -8.732642562365e-15 
   91       3.265612586431e-10       8.566138654848e-14      -2.313084503307e-12       3.544058945748e-16       1.358716167667e-11       1.812103936284e-12      -8.503747160847e-15 
   92       3.304924718171e-10       8.775099509051e-14      -2.398811335629e-12       3.622938777985e-16       1.321410412770e-11       1.771345393984e-12      -8.288413913910e-15 
   93       3.344519693386e-10       8.983644658406e-14      -2.485097653480e-12       3.702717979882e-16       1.285286560404e-11       1.731671929385e-12      -8.090758697875e-15 
   94       3.384398650949e-10       9.191590467820e-14      -2.571881306142e-12       3.783401869753e-16       1.250327948754e-11       1.693072976288e-12      -7.911223220043e-15 
   95       3.424565148734e-10       9.398759250875e-14      -2.659106923580e-12       3.864996778203e-16       1.216541084109e-11       1.655571728730e-12      -7.749171445910e-15 
   96       3.465021285719e-10       9.604971098928e-14      -2.746718674789e-12       3.947509453745e-16       1.183922072068e-11       1.619181634127e-12      -7.603804867653e-15 
   97       3.505767632538e-10       9.810043942761e-14      -2.834660309386e-12       4.030947073203e-16       1.152456219110e-11       1.583905998676e-12      -7.474157138066e-15 
   98       3.546803162051e-10       1.001379361423e-13      -2.922875199207e-12       4.115317252104e-16       1.122117634168e-11       1.549737592745e-12      -7.359088704495e-15 
   99       3.588125179903e-10       1.021603390790e-13      -3.011306379909e-12       4.200628055071e-16       1.092868830199e-11       1.516658256276e-12      -7.257281442777e-15 
  100       3.629729255084e-10       1.041657664274e-13      -3.099896592559e-12       4.286888006220e-16       1.064660325762e-11       1.484638504178e-12      -7.167233291176e-15 
  101       3.671609150494e-10       1.061523172370e-13      -3.188588325238e-12       4.374106099555e-16       1.037430246586e-11       1.453637131723e-12      -7.087252884321e-15 
  102       3.713756753505e-10       1.081180720342e-13      -3.277323854632e-12       4.462291809362e-16       1.011103927144e-11       1.423600819947e-12      -7.015454187139e-15 
  103       3.756162006522e-10       1.100610934385e-13      -3.366045287632e-12       4.551455100603e-16       9.855935122266e-12       1.394463741042e-12      -6.949751128799e-15 
  104       3.798815028145e-10       1.119794546269e-13      -3.454692491487e-12       4.641605657778e-16       9.608178742199e-12       1.366162980297e-12      -6.888210534864e-15 
  105       3.841712952544e-10       1.138713277781e-13      -3.543196476238e-12       4.732750430475e-16       9.367662872868e-12       1.338688024426e-12      -6.830176778700e-15 
  106       3.884853888835e-10       1.157349087805e-13      -3.631485191735e-12       4.824895774097e-16       9.134426518995e-12       1.312037253855e-12      -6.775289757458e-15 
  107       3.928234768162e-10       1.175683913633e-13      -3.719485577422e-12       4.918048203570e-16       8.908457741667e-12       1.286202505034e-12      -6.723138748964e-15 
