# dimensionless total lensed [l(l+1)/2pi] C_l's
# for l=2 to 2500, i.e. number of multipoles equal to 2499
#
# -> if you prefer output in CAMB/HealPix/LensPix units/order, set 'format' to 'camb' in input file
# -> if you don't want to see such a header, set 'headers' to 'no' in input file
# -> for CMB lensing (phi), these are C_l^phi-phi for the lensing potential.
#    Remember the conversion factors:
#    C_l^dd (deflection) = l(l+1) C_l^phi-phi
#    C_l^gg (shear/convergence) = 1/4 (l(l+1))^2 C_l^phi-phi
#
# 1:l     2:TT                     3:EE                     4:TE                     5:BB                     6:phiphi                 7:TPhi                   8:Ephi               
    2       1.558198189526e-10       7.407884021084e-15       4.681302963737e-13       2.351415341335e-19       8.414711371911e-09       5.161222315620e-10      -2.513968418364e-12 
    3       1.469929757678e-10       1.249382984844e-14       5.919691427931e-13       4.705091042255e-19       5.231715913586e-09       3.725753826239e-10      -2.207284882608e-12 
    4       1.377937449900e-10       1.445784803716e-14       6.147564746152e-13       7.846761840199e-19       3.645691208713e-09       2.851626381084e-10      -1.752354313458e-12 
    5       1.303779031146e-10       1.321958135740e-14       5.773386495839e-13       1.177922312385e-18       2.722780487746e-09       2.270562739568e-10      -1.290442746803e-12 
    6       1.248213371472e-10       1.006650340534e-14       5.088671030303e-13       1.650578843990e-18       2.126129277868e-09       1.858349512326e-10      -8.707764701950e-13 
    7       1.208196252177e-10       6.580086443275e-15       4.297312540050e-13       2.203017970967e-18       1.714546568713e-09       1.552409538407e-10      -5.183876743924e-13 
    8       1.180869964410e-10       3.849754884945e-15       3.523776247617e-13       2.835640559611e-18       1.417334881181e-09       1.318411551534e-10      -2.440563714304e-13 
    9       1.163365739955e-10       2.236519835072e-15       2.841861073980e-13       3.548863283838e-18       1.194388065620e-09       1.135385384042e-10      -4.886669196841e-14 
   10       1.153748276342e-10       1.543140632731e-15       2.291819840570e-13       4.343105563484e-18       1.021678773881e-09       9.888749951258e-11       7.337440490956e-14 
   11       1.149641220223e-10       1.348210886364e-15       1.890258392098e-13       5.218776821256e-18       8.610615810328e-10       8.712861951338e-11       1.332124072920e-13 
   12       1.149898631396e-10       1.289036761760e-15       1.635639489910e-13       6.176264556909e-18       7.526338249127e-10       7.714053575037e-11       1.464733292137e-13 
   13       1.154154938576e-10       1.188689810138e-15       1.510775677137e-13       7.215923701730e-18       6.635870403451e-10       6.875693497481e-11       1.268692863791e-13 
   14       1.161439385173e-10       1.037003245586e-15       1.487510173133e-13       8.338067662034e-18       5.894777065337e-10       6.187556836165e-11       8.878689433441e-14 
   15       1.170596651079e-10       8.997915202235e-16       1.534309055241e-13       9.542961389397e-18       5.270873412649e-10       5.600344571338e-11       4.385169636898e-14 
   16       1.181491878107e-10       8.333422092117e-16       1.622206411886e-13       1.083081673064e-17       4.740241842392e-10       5.079135790811e-11       1.045340882217e-15 
   17       1.194311831962e-10       8.458713254781e-16       1.726589720381e-13       1.220179021554e-17       4.284899601137e-10       4.630042765041e-11      -3.323547935044e-14 
   18       1.208207616326e-10       9.037574909540e-16       1.828879632243e-13       1.365598214474e-17       3.889575393573e-10       4.242309554500e-11      -5.581140969560e-14 
   19       1.223231287592e-10       9.756813148162e-16       1.920430684401e-13       1.519344529032e-17       3.548041882591e-10       3.905096676431e-11      -6.627435563934e-14 
   20       1.239217288945e-10       1.032775311563e-15       1.995381521703e-13       1.681417687446e-17       3.247166273729e-10       3.601233624187e-11      -6.602460549174e-14 
   21       1.256092230435e-10       1.082568474562e-15       2.054819106150e-13       1.851814313214e-17       2.982242854166e-10       3.328177095684e-11      -5.757288090748e-14 
   22       1.273505869378e-10       1.147389078579e-15       2.103196635979e-13       2.030526972282e-17       2.746951941091e-10       3.084009272295e-11      -4.454587073025e-14 
   23       1.291574476511e-10       1.245270813313e-15       2.145494704196e-13       2.217547088612e-17       2.538071558922e-10       2.866874004874e-11      -2.987483981763e-14 
   24       1.310308685997e-10       1.391192996613e-15       2.187433461960e-13       2.412863980843e-17       2.350785538303e-10       2.671998225337e-11      -1.651792656794e-14 
   25       1.329561305390e-10       1.582969684025e-15       2.233375676742e-13       2.616468256097e-17       2.182898030151e-10       2.495743135097e-11      -6.244643956847e-15 
   26       1.349017274754e-10       1.811602557627e-15       2.286767494921e-13       2.828350632705e-17       2.031378669717e-10       2.333525693818e-11      -2.950433815865e-16 
   27       1.368808567737e-10       2.071638732526e-15       2.347270169552e-13       3.048504909965e-17       1.894425199625e-10       2.185336161076e-11       1.334339861415e-15 
   28       1.389089909217e-10       2.358495575745e-15       2.412594596262e-13       3.276927214518e-17       1.769693891735e-10       2.051406291226e-11      -7.197564885718e-16 
   29       1.409914289494e-10       2.671838050180e-15       2.479268940040e-13       3.513619405429e-17       1.656550316898e-10       1.930935345666e-11      -5.471493791800e-15 
   30       1.431156899516e-10       3.012496425965e-15       2.542458632465e-13       3.758587173319e-17       1.553777167792e-10       1.821388852318e-11      -1.151104898054e-14 
   31       1.452587265043e-10       3.380702209915e-15       2.596634970224e-13       4.011840023761e-17       1.459276941625e-10       1.719310444655e-11      -1.724060987451e-14 
   32       1.474263168827e-10       3.774399946512e-15       2.638330442235e-13       4.273393517223e-17       1.372566265897e-10       1.624443035345e-11      -2.185714316982e-14 
   33       1.496258121721e-10       4.190208821387e-15       2.664326321158e-13       4.543268683911e-17       1.293039679232e-10       1.536971945052e-11      -2.471624859014e-14 
   34       1.518569102607e-10       4.625368086598e-15       2.671602189349e-13       4.821491411110e-17       1.219592581083e-10       1.456493955445e-11      -2.527552760736e-14 
   35       1.541193796920e-10       5.083209966309e-15       2.659747706322e-13       5.108090593171e-17       1.151850932129e-10       1.382403305582e-11      -2.379955925171e-14 
   36       1.564061940873e-10       5.569686593759e-15       2.629425693357e-13       5.403100097673e-17       1.089271338894e-10       1.313525554632e-11      -2.091720261193e-14 
   37       1.587067530487e-10       6.090821777143e-15       2.581722056011e-13       5.706557300443e-17       1.031039791206e-10       1.248441067627e-11      -1.735022834360e-14 
   38       1.610284310136e-10       6.648606498796e-15       2.517973006288e-13       6.018494898023e-17       9.770070741159e-11       1.187165985141e-11      -1.357044597345e-14 
   39       1.633810065760e-10       7.243785514880e-15       2.439935824220e-13       6.338946898877e-17       9.270034991894e-11       1.129963299501e-11      -1.004389713191e-14 
   40       1.657702710007e-10       7.876939872691e-15       2.349874666477e-13       6.667951108365e-17       8.805544097065e-11       1.076863619503e-11      -7.329874773623e-15 
   41       1.681976978105e-10       8.548451703061e-15       2.249860551362e-13       7.005545381258e-17       8.370458632195e-11       1.027695349654e-11      -5.929232683115e-15 
   42       1.706604952021e-10       9.258415845706e-15       2.139323571194e-13       7.351754364750e-17       7.963505244545e-11       9.822419973515e-12      -5.756509875648e-15 
   43       1.731507493837e-10       1.000667772697e-14       2.016755427704e-13       7.706598823073e-17       7.583607263577e-11       9.400975975358e-12      -6.505357528309e-15 
   44       1.756548000651e-10       1.079283899629e-14       1.880352093652e-13       8.070099195416e-17       7.228006091354e-11       9.005992295012e-12      -7.785841999136e-15 
   45       1.781587838434e-10       1.161645899627e-14       1.728249400437e-13       8.442272016036e-17       6.893247914995e-11       8.630244106207e-12      -9.189834468090e-15 
   46       1.806683646274e-10       1.247776499585e-14       1.559360109960e-13       8.823118010693e-17       6.578811196176e-11       8.272989255559e-12      -1.052285371319e-14 
   47       1.831940904605e-10       1.337712974757e-14       1.372753657732e-13       9.212630360396e-17       6.284335854642e-11       7.934679276518e-12      -1.163261164736e-14 
   48       1.857457583566e-10       1.431487208241e-14       1.167417806409e-13       9.610797680061e-17       6.008529204330e-11       7.614911396464e-12      -1.234324772038e-14 
   49       1.883322840335e-10       1.529125491625e-14       9.422536890421e-14       1.001760376740e-16       5.749096571643e-11       7.312361150745e-12      -1.245415096074e-14 
   50       1.909602197708e-10       1.630647548973e-14       6.963979053614e-14       1.043302709730e-16       5.503433389096e-11       7.025321198820e-12      -1.181248389872e-14 
   51       1.936291359167e-10       1.736063758921e-14       4.303033811343e-14       1.085703972574e-16       5.271083911827e-11       6.753646529297e-12      -1.055669485436e-14 
   52       1.963347605692e-10       1.845376833962e-14       1.449433278093e-14       1.128960765431e-16       5.051829961323e-11       6.497220778041e-12      -8.937068134404e-15 
   53       1.990700325986e-10       1.958582300928e-14      -1.584799818429e-14       1.173069080183e-16       4.844955028777e-11       6.255358237059e-12      -7.250035250946e-15 
   54       2.018249077630e-10       2.075668265085e-14      -4.785247797531e-14       1.218024274129e-16       4.649210727498e-11       6.026764995695e-12      -5.840465287024e-15 
   55       2.045897321086e-10       2.196620401863e-14      -8.138669548120e-14       1.263821587792e-16       4.463198036308e-11       5.809925154345e-12      -5.017684107407e-15 
   56       2.073667876952e-10       2.321438924588e-14      -1.164499311778e-13       1.310457909251e-16       4.286698791384e-11       5.604460840701e-12      -4.773854196413e-15 
   57       2.101612754734e-10       2.450125418708e-14      -1.530811958098e-13       1.357930402023e-16       4.119616204335e-11       5.410041986485e-12      -4.999646081232e-15 
   58       2.129779455901e-10       2.582677951956e-14      -1.913254622701e-13       1.406235994353e-16       3.961572042890e-11       5.225969043679e-12      -5.563332433466e-15 
   59       2.158210424892e-10       2.719091042131e-14      -2.312340543568e-13       1.455371374098e-16       3.811889243997e-11       5.051150686983e-12      -6.309717220932e-15 
   60       2.186942500128e-10       2.859355624874e-14      -2.728650355288e-13       1.505332983625e-16       3.669574526917e-11       4.884081516273e-12      -7.059064859462e-15 
   61       2.216005165193e-10       3.003451138937e-14      -3.162709133670e-13       1.556117784093e-16       3.533594473705e-11       4.723254894331e-12      -7.646886601245e-15 
   62       2.245416085688e-10       3.151319778881e-14      -3.614576484128e-13       1.607725760357e-16       3.403815519489e-11       4.568560188965e-12      -8.056158048468e-15 
   63       2.275183591816e-10       3.302886379636e-14      -4.084170924053e-13       1.660157971812e-16       3.280245059944e-11       4.420161016799e-12      -8.313014103002e-15 
   64       2.305307214380e-10       3.458065512311e-14      -4.571388472366e-13       1.713415851526e-16       3.162748686695e-11       4.278079460110e-12      -8.448731595463e-15 
   65       2.335777097712e-10       3.616761201858e-14      -5.076102512457e-13       1.767501225545e-16       3.051042111911e-11       4.142187575800e-12      -8.499954806239e-15 
   66       2.366573412615e-10       3.778866644750e-14      -5.598163655108e-13       1.822416332192e-16       2.944683092897e-11       4.012198904362e-12      -8.508920986504e-15 
   67       2.397665769302e-10       3.944263926648e-14      -6.137399601437e-13       1.878163841377e-16       2.843063356695e-11       3.887659978857e-12      -8.523685879240e-15 
   68       2.429024462949e-10       4.112836234349e-14      -6.693618430339e-13       1.934746745099e-16       2.745571149478e-11       3.768091214283e-12      -8.587671966974e-15 
   69       2.460658168630e-10       4.284507996098e-14      -7.266619540736e-13       1.992167960068e-16       2.652135182598e-11       3.653461706082e-12      -8.705349873337e-15 
   70       2.492582864838e-10       4.459212404942e-14      -7.856184690471e-13       2.050430678873e-16       2.562776903731e-11       3.543795826698e-12      -8.869976295436e-15 
   71       2.524810397339e-10       4.636879680657e-14      -8.462074719372e-13       2.109538507372e-16       2.477445979035e-11       3.439027770668e-12      -9.073609301010e-15 
   72       2.557348194736e-10       4.817437106967e-14      -9.084029499771e-13       2.169495480702e-16       2.396016581550e-11       3.338996884073e-12      -9.307060773415e-15 
   73       2.590198984028e-10       5.000809068762e-14      -9.721767887017e-13       2.230306079286e-16       2.318283679597e-11       3.243442993974e-12      -9.559848856595e-15 
   74       2.623360506181e-10       5.186917089318e-14      -1.037498767000e-12       2.291975244846e-16       2.243959325181e-11       3.152001737854e-12      -9.820150400060e-15 
   75       2.656825231681e-10       5.375679867512e-14      -1.104336552165e-12       2.354508396407e-16       2.172668942389e-11       3.064199893062e-12      -1.007475340386e-14 
   76       2.690585304045e-10       5.566998296916e-14      -1.172653819205e-12       2.417910470813e-16       2.104044353557e-11       2.979572607538e-12      -1.031131901542e-14 
   77       2.724649039822e-10       5.760707286909e-14      -1.242404223770e-12       2.482182806871e-16       2.038030646801e-11       2.898050096531e-12      -1.052574885145e-14 
   78       2.759026934658e-10       5.956615182712e-14      -1.313536316064e-12       2.547325719464e-16       1.974628784022e-11       2.819633304051e-12      -1.071608098660e-14 
   79       2.793726527917e-10       6.154517737746e-14      -1.385995276372e-12       2.613339420703e-16       1.913802127497e-11       2.744276121581e-12      -1.088029939323e-14 
   80       2.828752225450e-10       6.354197842893e-14      -1.459722871651e-12       2.680224015941e-16       1.855474711973e-11       2.671883217205e-12      -1.101633374557e-14 
   81       2.864105122356e-10       6.555425255753e-14      -1.534657412117e-12       2.747979499772e-16       1.799529516751e-11       2.602307864735e-12      -1.112205922399e-14 
   82       2.899782825755e-10       6.757956329906e-14      -1.610733707832e-12       2.816605752042e-16       1.745806737770e-11       2.535349772834e-12      -1.119529631916e-14 
   83       2.935779277547e-10       6.961533744172e-14      -1.687883025296e-12       2.886102533849e-16       1.694102059697e-11       2.470752914147e-12      -1.123381063628e-14 
   84       2.972088015292e-10       7.165911372949e-14      -1.766039539299e-12       2.956469644469e-16       1.644216337677e-11       2.408269442646e-12      -1.123587660278e-14 
   85       3.008712964178e-10       7.370934227503e-14      -1.845161012518e-12       3.027707430751e-16       1.596117890721e-11       2.347868375659e-12      -1.120207639325e-14 
   86       3.045659117497e-10       7.576471332476e-14      -1.925211480507e-12       3.099816355234e-16       1.549804070173e-11       2.289557687561e-12      -1.113380025577e-14 
   87       3.082929139923e-10       7.782391912679e-14      -2.006155126018e-12       3.172796841472e-16       1.505251391042e-11       2.233320252929e-12      -1.103271826864e-14 
   88       3.120523248055e-10       7.988565544884e-14      -2.087956344758e-12       3.246649272745e-16       1.462414668112e-11       2.179112786391e-12      -1.090078962203e-14 
   89       3.158439090970e-10       8.194862309627e-14      -2.170579811137e-12       3.321373990767e-16       1.421226152062e-11       2.126864782482e-12      -1.074027189947e-14 
   90       3.196671630772e-10       8.401152943005e-14      -2.253990544023e-12       3.396971294395e-16       1.381594665574e-11       2.076477455496e-12      -1.055373035950e-14 
   91       3.235213023143e-10       8.607308988475e-14      -2.338153972490e-12       3.473441438343e-16       1.343404739453e-11       2.027822679335e-12      -1.034404721720e-14 
   92       3.274052497887e-10       8.813202948653e-14      -2.423036001577e-12       3.550784631886e-16       1.306515748741e-11       1.980741927367e-12      -1.011443092580e-14 
   93       3.313179673403e-10       9.018697136499e-14      -2.508596853136e-12       3.629002184353e-16       1.270795285485e-11       1.935084923062e-12      -9.868246589291e-15 
   94       3.352595329750e-10       9.223607981085e-14      -2.594771385944e-12       3.708100141459e-16       1.236226895002e-11       1.890834544162e-12      -9.608457864015e-15 
   95       3.392302042536e-10       9.427736609094e-14      -2.681485923535e-12       3.788086196031e-16       1.202817021315e-11       1.847998831411e-12      -9.338117889193e-15 
   96       3.432300822029e-10       9.630879663816e-14      -2.768664195933e-12       3.868968604228e-16       1.170561825619e-11       1.806572443461e-12      -9.060547411607e-15 
   97       3.472591040840e-10       9.832829301831e-14      -2.856227319960e-12       3.950756199984e-16       1.139446792357e-11       1.766536141831e-12      -8.779341611876e-15 
   98       3.513170361613e-10       1.003337318968e-13      -2.944093779537e-12       4.033458409466e-16       1.109446335296e-11       1.727856275857e-12      -8.498376930726e-15 
   99       3.554034664707e-10       1.023229450055e-13      -3.032179405992e-12       4.117085265523e-16       1.080523403599e-11       1.690484267656e-12      -8.221817895268e-15 
  100       3.595177975886e-10       1.042937191093e-13      -3.120397358359e-12       4.201647422137e-16       1.052629087906e-11       1.654356097074e-12      -7.954123945268e-15 
  101       3.636592394005e-10       1.062437959732e-13      -3.208658103686e-12       4.287156168877e-16       1.025702226404e-11       1.619391786648e-12      -7.700056259421e-15 
  102       3.678268018694e-10       1.081708723289e-13      -3.296869397338e-12       4.373623445347e-16       9.996690109079e-12       1.585494886561e-12      -7.464684581622e-15 
  103       3.720192878047e-10       1.100725998416e-13      -3.384936263301e-12       4.461061855643e-16       9.744425929317e-12       1.552551959597e-12      -7.253394047240e-15 
  104       3.762355392971e-10       1.119466967973e-13      -3.472766448772e-12       4.549483364603e-16       9.499427742943e-12       1.520458750251e-12      -7.070627150708e-15 
  105       3.804752305134e-10       1.137913004196e-13      -3.560287669525e-12       4.638895154885e-16       9.261589567056e-12       1.489203827407e-12      -6.915901402104e-15 
  106       3.847381690144e-10       1.156046623054e-13      -3.647432668272e-12       4.729303234577e-16       9.030950009500e-12       1.458795332977e-12      -6.787263935797e-15 
  107       3.890240472607e-10       1.173850421343e-13      -3.734133988373e-12       4.820713705387e-16       8.807497305901e-12       1.429235087590e-12      -6.682501342427e-15 
