# dimensionless total [l(l+1)/2pi] C_l's
# for l=2 to 3500, i.e. number of multipoles equal to 3499
#
# -> if you prefer output in CAMB/HealPix/LensPix units/order, set 'format' to 'camb' in input file
# -> if you don't want to see such a header, set 'headers' to 'no' in input file
# -> for CMB lensing (phi), these are C_l^phi-phi for the lensing potential.
#    Remember the conversion factors:
#    C_l^dd (deflection) = l(l+1) C_l^phi-phi
#    C_l^gg (shear/convergence) = 1/4 (l(l+1))^2 C_l^phi-phi
#
# 1:l     2:TT                     3:EE                     4:TE                     5:BB                     6:phiphi                 7:TPhi                   8:Ephi               
    2       5.188570769299e-10       2.552947483762e-15       6.563279471849e-13       0.000000000000e+00       2.351345269174e-08      -2.658845793981e-09      -1.857083024136e-12 
    3       3.809574705353e-10       4.872070816975e-15       6.339564226981e-13       0.000000000000e+00       1.395855085328e-08      -1.748329525405e-09      -1.510351554992e-12 
    4       3.059206121490e-10       7.118509279875e-15       6.029121894778e-13       0.000000000000e+00       9.639301042847e-09      -1.269332761386e-09      -1.275636701223e-12 
    5       2.591879092228e-10       8.580055115552e-15       5.596991590032e-13       0.000000000000e+00       7.161621544287e-09      -9.764597966157e-10      -1.072204722222e-12 
    6       2.274168783086e-10       8.931927373445e-15       5.063778414988e-13       0.000000000000e+00       5.560949636978e-09      -7.803543028166e-10      -8.800900375813e-13 
    7       2.045696543271e-10       8.254881254915e-15       4.489018986213e-13       0.000000000000e+00       4.459734319048e-09      -6.412682829975e-10      -7.016230677352e-13 
    8       1.875496836872e-10       6.876258616920e-15       3.915271434044e-13       0.000000000000e+00       3.669168695215e-09      -5.383594396130e-10      -5.397598270343e-13 
    9       1.745255784129e-10       5.208351531919e-15       3.371636026322e-13       0.000000000000e+00       3.081676283927e-09      -4.597387419871e-10      -3.967597707511e-13 
   10       1.643953731339e-10       3.616590983092e-15       2.876364777197e-13       0.000000000000e+00       2.631966279412e-09      -3.980514161232e-10      -2.739754307214e-13 
   11       1.564176333910e-10       2.342203854024e-15       2.440034972366e-13       0.000000000000e+00       1.991681684275e-09      -3.301441799624e-10      -1.725251263389e-13 
   12       1.500458326884e-10       1.481745638138e-15       2.068955516876e-13       0.000000000000e+00       1.725405715289e-09      -2.905403346493e-10      -9.128759364263e-14 
   13       1.449605770987e-10       1.010045777046e-15       1.765627509642e-13       0.000000000000e+00       1.508925949239e-09      -2.576314468138e-10      -2.900802087532e-14 
   14       1.409156106366e-10       8.265950765803e-16       1.529840652534e-13       0.000000000000e+00       1.330446661735e-09      -2.300839266594e-10       1.527784513319e-14 
   15       1.376577693496e-10       8.060957488938e-16       1.359457786834e-13       0.000000000000e+00       1.181497200942e-09      -2.065713358876e-10       4.398047999200e-14 
   16       1.350568372354e-10       8.388472985418e-16       1.249539382783e-13       0.000000000000e+00       1.055860132948e-09      -1.864258618910e-10       5.894610449511e-14 
   17       1.330232264357e-10       8.536579144962e-16       1.192454346790e-13       0.000000000000e+00       9.488905387845e-10      -1.688838429964e-10       6.297554499113e-14 
   18       1.314133588398e-10       8.218991701381e-16       1.179644894041e-13       0.000000000000e+00       8.566183992350e-10      -1.536187790852e-10       5.851545742585e-14 
   19       1.302082401790e-10       7.532964423971e-16       1.203933800314e-13       0.000000000000e+00       7.776063654077e-10      -1.404231737669e-10       4.780028202011e-14 
   20       1.293236080764e-10       6.726362681091e-16       1.254281848268e-13       0.000000000000e+00       7.084055435571e-10      -1.286902873568e-10       3.376175286935e-14 
   21       1.287284202588e-10       6.050092520948e-16       1.322970918983e-13       0.000000000000e+00       6.478065939055e-10      -1.182707758427e-10       1.827306190153e-14 
   22       1.283535341094e-10       5.750775577371e-16       1.401590443982e-13       0.000000000000e+00       5.943115110215e-10      -1.089986777450e-10       3.051045886471e-15 
   23       1.281907717024e-10       5.866800232534e-16       1.484394787628e-13       0.000000000000e+00       5.471052456382e-10      -1.007680749152e-10      -1.067057303182e-14 
   24       1.282132721821e-10       6.335364694286e-16       1.565907949445e-13       0.000000000000e+00       5.049952050438e-10      -9.338779845778e-11      -2.185120184529e-14 
   25       1.284032933825e-10       7.026144255234e-16       1.643049238967e-13       0.000000000000e+00       4.674343430871e-10      -8.675401364582e-11      -3.002852153996e-14 
   26       1.287229342950e-10       7.773317856835e-16       1.713532192657e-13       0.000000000000e+00       4.336988999765e-10      -8.072981803341e-11      -3.505546745551e-14 
   27       1.291685325572e-10       8.489448140749e-16       1.776625801372e-13       0.000000000000e+00       4.033483081941e-10      -7.526374574126e-11      -3.708122986636e-14 
   28       1.297304563649e-10       9.121750845190e-16       1.832352870894e-13       0.000000000000e+00       3.758213752479e-10      -7.029207171185e-11      -3.647882682202e-14 
   29       1.304075000438e-10       9.707230679727e-16       1.881521638558e-13       0.000000000000e+00       3.509559529843e-10      -6.578658892579e-11      -3.367387619325e-14 
   30       1.311803733772e-10       1.032543030453e-15       1.925534797023e-13       0.000000000000e+00       3.284628790841e-10      -6.168344489391e-11      -2.927019911041e-14 
   31       1.320145420678e-10       1.106471516779e-15       1.966123680757e-13       0.000000000000e+00       3.078557109855e-10      -5.788532020469e-11      -2.400406483483e-14 
   32       1.329128409061e-10       1.197060611958e-15       2.004646023212e-13       0.000000000000e+00       2.890149337455e-10      -5.438103736325e-11      -1.837703297949e-14 
   33       1.338790643000e-10       1.307898445149e-15       2.042563548830e-13       0.000000000000e+00       2.717959336511e-10      -5.116408851015e-11      -1.290340285551e-14 
   34       1.349071640165e-10       1.441825798730e-15       2.081378481205e-13       0.000000000000e+00       2.559435447510e-10      -4.820709676688e-11      -8.121615522917e-15 
   35       1.359968616784e-10       1.596997488692e-15       2.121721637840e-13       0.000000000000e+00       2.413681862877e-10      -4.549123082506e-11      -4.276891248084e-15 
   36       1.371412170219e-10       1.769328843137e-15       2.163942095436e-13       0.000000000000e+00       2.279442336842e-10      -4.298295671845e-11      -1.529419299948e-15 
   37       1.383273367079e-10       1.954606267920e-15       2.208161607962e-13       0.000000000000e+00       2.154867432736e-10      -4.063833623635e-11       3.432327997038e-18 
   38       1.395571158848e-10       2.152497115800e-15       2.253665879665e-13       0.000000000000e+00       2.039587560340e-10      -3.845192653206e-11       3.850587106691e-16 
   39       1.408318490120e-10       2.363813639192e-15       2.299281425749e-13       0.000000000000e+00       1.933196294657e-10      -3.642164890378e-11      -2.270002476431e-16 
   40       1.421457753589e-10       2.589445123114e-15       2.343508709641e-13       0.000000000000e+00       1.834621386885e-10      -3.453443734104e-11      -1.612147183943e-15 
   41       1.434897232305e-10       2.830153391294e-15       2.384676345357e-13       0.000000000000e+00       1.742489170697e-10      -3.277135206910e-11      -3.509642047123e-15 
   42       1.448651637138e-10       3.085868683477e-15       2.421520152479e-13       0.000000000000e+00       1.656499410753e-10      -3.112728930207e-11      -5.707310280779e-15 
   43       1.462735456041e-10       3.356171969061e-15       2.452753341029e-13       0.000000000000e+00       1.576400719158e-10      -2.959603031948e-11      -7.974015629204e-15 
   44       1.477119428102e-10       3.640474278827e-15       2.476894332913e-13       0.000000000000e+00       1.501578718225e-10      -2.816414188816e-11      -1.003203098927e-14 
   45       1.491755011123e-10       3.938226385857e-15       2.492528855594e-13       0.000000000000e+00       1.431270132853e-10      -2.681547342496e-11      -1.161394710817e-14 
   46       1.506666077963e-10       4.249646032306e-15       2.499215689852e-13       0.000000000000e+00       1.365349196144e-10      -2.554758422400e-11      -1.265997608387e-14 
   47       1.521877725123e-10       4.575191200725e-15       2.496832916021e-13       0.000000000000e+00       1.303727404354e-10      -2.435926547832e-11      -1.317509403723e-14 
   48       1.537387768010e-10       4.915361999404e-15       2.485332846252e-13       0.000000000000e+00       1.246116660237e-10      -2.324563725631e-11      -1.317532699755e-14 
   49       1.553164322523e-10       5.270703367399e-15       2.464746709345e-13       0.000000000000e+00       1.192014487076e-10      -2.219787461727e-11      -1.268851319651e-14 
   50       1.569163343584e-10       5.641857838586e-15       2.435211811714e-13       0.000000000000e+00       1.140853012457e-10      -2.120591587269e-11      -1.176313539174e-14 
   51       1.585392463845e-10       6.029734442648e-15       2.397050842948e-13       0.000000000000e+00       1.092527897876e-10      -2.026808942575e-11      -1.049587565934e-14 
   52       1.601860302884e-10       6.435390326160e-15       2.350722194872e-13       0.000000000000e+00       1.046987422639e-10      -1.938362660249e-11      -9.012857709997e-15 
   53       1.618556580576e-10       6.859989641236e-15       2.296804973162e-13       0.000000000000e+00       1.004074351186e-10      -1.854977751279e-11      -7.463345533364e-15 
   54       1.635450637822e-10       7.304808606282e-15       2.236004739881e-13       0.000000000000e+00       9.635188539315e-11      -1.776167750217e-11      -6.020885458024e-15 
   55       1.652506564543e-10       7.770987064306e-15       2.168962186093e-13       0.000000000000e+00       9.250195777879e-11      -1.701382896397e-11      -4.847516986922e-15 
   56       1.669736373425e-10       8.258699290189e-15       2.095610335189e-13       0.000000000000e+00       8.885266595842e-11      -1.630528379526e-11      -3.973377554696e-15 
   57       1.687157444616e-10       8.767786058435e-15       2.015667713573e-13       0.000000000000e+00       8.540166195500e-11      -1.563551445408e-11      -3.389189415170e-15 
   58       1.704776261673e-10       9.297985386923e-15       1.928819536608e-13       0.000000000000e+00       8.214068060428e-11      -1.500284232106e-11      -3.080280083724e-15 
   59       1.722587579326e-10       9.848927720937e-15       1.834715773107e-13       0.000000000000e+00       7.905517507916e-11      -1.440436708727e-11      -3.026285518395e-15 
   60       1.740573591246e-10       1.042013111720e-14       1.732969209819e-13       0.000000000000e+00       7.612395241391e-11      -1.383589614221e-11      -3.200853300989e-15 
   61       1.758713842824e-10       1.101115439038e-14       1.623178150636e-13       0.000000000000e+00       7.332500300279e-11      -1.329309295671e-11      -3.570656597205e-15 
   62       1.777019452343e-10       1.162210761746e-14       1.505004846823e-13       0.000000000000e+00       7.065534269632e-11      -1.277538319197e-11      -4.092848895519e-15 
   63       1.795505129263e-10       1.225324819703e-14       1.378111316806e-13       0.000000000000e+00       6.811499797690e-11      -1.228280404644e-11      -4.716508646700e-15 
   64       1.814178625440e-10       1.290483319042e-14       1.242135133892e-13       0.000000000000e+00       6.570104037459e-11      -1.181483132676e-11      -5.382965696042e-15 
   65       1.833040243829e-10       1.357711951775e-14       1.096688272394e-13       0.000000000000e+00       6.340741852152e-11      -1.137034751356e-11      -6.025482596010e-15 
   66       1.852082347175e-10       1.427036415404e-14       9.413559537568e-14       0.000000000000e+00       6.122479020629e-11      -1.094760982712e-11      -6.568935918881e-15 
   67       1.871288866715e-10       1.498482432521e-14       7.756954926877e-14       0.000000000000e+00       5.914035442836e-11      -1.054421829311e-11      -6.929497569395e-15 
   68       1.890642859454e-10       1.572072140481e-14       5.993358918343e-14       0.000000000000e+00       5.714124849206e-11      -1.015775337867e-11      -7.036084433421e-15 
   69       1.910152056414e-10       1.647812367098e-14       4.123026391154e-14       0.000000000000e+00       5.522591401252e-11      -9.787910314961e-12      -6.900466660095e-15 
   70       1.929827632319e-10       1.725704003605e-14       2.147569523969e-14       0.000000000000e+00       5.339474283871e-11      -9.434741863466e-12      -6.560857929594e-15 
   71       1.949676334710e-10       1.805745352465e-14       6.902251305930e-16       0.000000000000e+00       5.164664039506e-11      -9.098012466236e-12      -6.061637818299e-15 
   72       1.969700198485e-10       1.887932054151e-14      -2.110144199520e-14       0.000000000000e+00       4.997894891332e-11      -8.777183436177e-12      -5.453589846382e-15 
   73       1.989896260447e-10       1.972257013907e-14      -4.387009697764e-14       0.000000000000e+00       4.838737066449e-11      -8.471398147345e-12      -4.794139525383e-15 
   74       2.010256273842e-10       2.058710328518e-14      -6.758188363550e-14       0.000000000000e+00       4.686589119065e-11      -8.179467225226e-12      -4.147592405793e-15 
   75       2.030766422904e-10       2.147279213082e-14      -9.219815648469e-14       0.000000000000e+00       4.540670253687e-11      -7.899853737033e-12      -3.585372124641e-15 
   76       2.051413362387e-10       2.237950847869e-14      -1.176850442197e-13       0.000000000000e+00       4.400213507037e-11      -7.631051231676e-12      -3.170242426950e-15 
   77       2.072204238655e-10       2.330721680141e-14      -1.440444680399e-13       0.000000000000e+00       4.265102933477e-11      -7.372830184300e-12      -2.905125339993e-15 
   78       2.093149817877e-10       2.425589693399e-14      -1.712885474469e-13       0.000000000000e+00       4.135339206044e-11      -7.125192996682e-12      -2.775338868316e-15 
   79       2.114258331693e-10       2.522551624630e-14      -1.994304521028e-13       0.000000000000e+00       4.010845565245e-11      -6.887994667051e-12      -2.763696118187e-15 
   80       2.135535321451e-10       2.621602950955e-14      -2.284844585730e-13       0.000000000000e+00       3.891464261023e-11      -6.660936036079e-12      -2.850414923589e-15 
   81       2.156983482453e-10       2.722737876278e-14      -2.584660070690e-13       0.000000000000e+00       3.776952994713e-11      -6.443557032869e-12      -3.013027472213e-15 
   82       2.178602508195e-10       2.825949317930e-14      -2.893917581913e-13       0.000000000000e+00       3.666981361002e-11      -6.235229920947e-12      -3.226289931456e-15 
   83       2.200388934609e-10       2.931228893321e-14      -3.212796496723e-13       0.000000000000e+00       3.561127289885e-11      -6.035152544250e-12      -3.462092074410e-15 
   84       2.222339068120e-10       3.038565165828e-14      -3.541454389144e-13       0.000000000000e+00       3.458979554642e-11      -5.842535060053e-12      -3.694614071573e-15 
   85       2.244458668713e-10       3.147938077609e-14      -3.879915477459e-13       0.000000000000e+00       3.360472614880e-11      -5.657210500411e-12      -3.916977074119e-15 
   86       2.266754594006e-10       3.259323565094e-14      -4.228164637990e-13       0.000000000000e+00       3.265601017971e-11      -5.479113516342e-12      -4.127200082436e-15 
   87       2.289231755757e-10       3.372695175708e-14      -4.586180880050e-13       0.000000000000e+00       3.174316519257e-11      -5.308092439830e-12      -4.323196049714e-15 
   88       2.311893015940e-10       3.488024025253e-14      -4.953937322748e-13       0.000000000000e+00       3.086526306628e-11      -5.143905781702e-12      -4.502769695602e-15 
   89       2.334739082812e-10       3.605278755306e-14      -5.331401171796e-13       0.000000000000e+00       3.002091225102e-11      -4.986218729493e-12      -4.663615319853e-15 
   90       2.357768406989e-10       3.724425490610e-14      -5.718533696315e-13       0.000000000000e+00       2.920824001407e-11      -4.834599645324e-12      -4.803314615988e-15 
   91       2.380977077510e-10       3.845427796460e-14      -6.115290205640e-13       0.000000000000e+00       2.842487468563e-11      -4.688516563768e-12      -4.919334484937e-15 
   92       2.404358717912e-10       3.968246636099e-14      -6.521620026128e-13       0.000000000000e+00       2.766792790462e-11      -4.547333689725e-12      -5.009024848702e-15 
   93       2.427907480688e-10       4.092842155592e-14      -6.937456373543e-13       0.000000000000e+00       2.693468106859e-11      -4.410462759583e-12      -5.070552399857e-15 
   94       2.451627771574e-10       4.219179438078e-14      -7.362684278220e-13       0.000000000000e+00       2.622480134523e-11      -4.277850772118e-12      -5.105867243984e-15 
   95       2.475525802443e-10       4.347223540206e-14      -7.797167770515e-13       0.000000000000e+00       2.553842767424e-11      -4.149559478598e-12      -5.118180474253e-15 
   96       2.499606562662e-10       4.476937724476e-14      -8.240759395661e-13       0.000000000000e+00       2.487548828055e-11      -4.025615697637e-12      -5.111078509592e-15 
   97       2.523873757690e-10       4.608283441709e-14      -8.693300051875e-13       0.000000000000e+00       2.423569258665e-11      -3.906009938852e-12      -5.088533755780e-15 
   98       2.548329747681e-10       4.741220313532e-14      -9.154618828462e-13       0.000000000000e+00       2.361852312484e-11      -3.790695026521e-12      -5.054915266535e-15 
   99       2.572975486084e-10       4.875706114849e-14      -9.624532843917e-13       0.000000000000e+00       2.302322744960e-11      -3.679584723229e-12      -5.014999404606e-15 
  100       2.597810458250e-10       5.011696756320e-14      -1.010284708403e-12       0.000000000000e+00       2.244881004985e-11      -3.572552353530e-12      -4.973980502864e-15 
  101       2.622832620027e-10       5.149146266837e-14      -1.058935424000e-12       0.000000000000e+00       2.189402426127e-11      -3.469429427597e-12      -4.937481525395e-15 
  102       2.648038336366e-10       5.288006776003e-14      -1.108383454651e-12       0.000000000000e+00       2.135736417861e-11      -3.370004264880e-12      -4.911564728584e-15 
  103       2.673422319925e-10       5.428228496604e-14      -1.158605561987e-12       0.000000000000e+00       2.083705656797e-11      -3.274020617755e-12      -4.902742322216e-15 
  104       2.698979855624e-10       5.569758753538e-14      -1.209579500322e-12       0.000000000000e+00       2.033146448848e-11      -3.181234341368e-12      -4.916425714252e-15 
  105       2.724713948822e-10       5.712538958926e-14      -1.261291161937e-12       0.000000000000e+00       1.984037767245e-11      -3.091595086011e-12      -4.952011705112e-15 
  106       2.750629032790e-10       5.856507193813e-14      -1.313728371334e-12       0.000000000000e+00       1.936388219047e-11      -3.005086697094e-12      -5.007149295079e-15 
  107       2.776728733138e-10       6.001599097565e-14      -1.366878709371e-12       0.000000000000e+00       1.890196078739e-11      -2.921670631136e-12      -5.079235406729e-15 
