# Matter power spectrum P(k) at redshift z=0
# for k=1.04578e-05 to 1.67618 h/Mpc,
# number of wavenumbers equal to 604
#    1:k (h/Mpc)              2:P (Mpc/h)^3        
       1.045781611038e-05       5.235179785438e+01 
       2.335679881275e-05       1.133974944013e+02 
       3.630125205953e-05       1.733033299578e+02 
       4.932610176113e-05       2.327431108310e+02 
       6.246685294895e-05       2.920961159492e+02 
       7.575990724735e-05       3.516441414463e+02 
       8.924289052188e-05       4.116265824454e+02 
       1.029549950731e-04       4.722629297795e+02 
       1.169373407785e-04       5.337642616447e+02 
       1.312333596179e-04       5.963401410879e+02 
       1.458892080257e-04       6.602033804782e+02 
       1.609542114485e-04       7.255737251156e+02 
       1.764813453074e-04       7.926809547473e+02 
       1.925277561845e-04       8.617677232882e+02 
       2.091553263830e-04       9.330922472333e+02 
       2.264312839121e-04       1.006930961112e+03 
       2.444288582497e-04       1.083581171264e+03 
       2.632279797170e-04       1.163363716692e+03 
       2.829160166783e-04       1.246625639829e+03 
       3.035885397267e-04       1.333742803682e+03 
       3.253500951386e-04       1.425122370268e+03 
       3.483149607758e-04       1.521205037123e+03 
       3.726078459010e-04       1.622466839622e+03 
       3.983644817880e-04       1.729420287360e+03 
       4.257320326036e-04       1.842614541180e+03 
       4.548692363560e-04       1.962634244255e+03 
       4.859461651608e-04       2.090096569219e+03 
       5.191434752971e-04       2.225645980076e+03 
       5.546510047481e-04       2.369946160000e+03 
       5.926655751377e-04       2.523668661828e+03 
       6.333878737377e-04       2.687477896466e+03 
       6.770183375545e-04       2.862012279249e+03 
       7.237520418226e-04       3.047861845374e+03 
       7.737727110427e-04       3.245542993892e+03 
       8.272461148029e-04       3.455471808020e+03 
       8.843132640231e-04       3.677937617304e+03 
       9.450839552638e-04       3.913079424835e+03 
       1.009631283884e-03       4.160867604804e+03 
       1.077987727552e-03       4.421093165422e+03 
       1.150143273647e-03       4.693366494530e+03 
       1.226045839063e-03       4.977125927978e+03 
       1.305603949909e-03       5.271655989113e+03 
       1.388691371473e-03       5.576089664236e+03 
       1.475153164942e-03       5.889487090606e+03 
       1.564812536508e-03       6.210860212474e+03 
       1.657477845683e-03       6.539169132990e+03 
       1.752949233288e-03       6.873369451009e+03 
       1.851024478613e-03       7.212436383512e+03 
       1.951503859887e-03       7.555384010880e+03 
       2.054193940707e-03       7.901279523788e+03 
       2.158910319316e-03       8.249252741815e+03 
       2.265479452074e-03       8.598502181178e+03 
       2.373739700751e-03       8.948296463965e+03 
       2.483541763610e-03       9.297974423871e+03 
       2.594748641887e-03       9.646942605134e+03 
       2.707235274559e-03       9.994671231652e+03 
       2.820887951167e-03       1.034069133539e+04 
       2.935603589254e-03       1.068458875393e+04 
       3.051288941831e-03       1.102600113017e+04 
       3.167859782391e-03       1.136460970907e+04 
       3.285240100517e-03       1.170013965806e+04 
       3.403361329917e-03       1.203234969164e+04 
       3.522161622287e-03       1.236103460248e+04 
       3.641585174288e-03       1.268601541604e+04 
       3.761581610588e-03       1.300714078360e+04 
       3.882105422998e-03       1.332428097870e+04 
       4.003115463796e-03       1.363732600504e+04 
       4.124574490173e-03       1.394618637007e+04 
       4.246448756106e-03       1.425078393113e+04 
       4.368707647655e-03       1.455105733425e+04 
       4.491323357668e-03       1.484695966446e+04 
       4.614270595991e-03       1.513845123880e+04 
       4.737526331507e-03       1.542549528435e+04 
       4.861069562569e-03       1.570805460104e+04 
       4.984881112728e-03       1.598617320071e+04 
       5.108943448907e-03       1.625979651527e+04 
       5.233240519485e-03       1.652894633189e+04 
       5.357757610023e-03       1.679369104177e+04 
       5.482481214612e-03       1.705396001824e+04 
       5.607398921037e-03       1.730980209385e+04 
       5.732499308184e-03       1.756121176638e+04 
       5.857771854291e-03       1.780771074280e+04 
       5.983206854788e-03       1.805031426356e+04 
       6.108795348664e-03       1.828855158892e+04 
       6.234529052371e-03       1.852245964129e+04 
       6.360400300447e-03       1.875193549401e+04 
       6.486401992086e-03       1.897736676417e+04 
       6.612527543022e-03       1.919849246128e+04 
       6.738770842125e-03       1.941536059853e+04 
       6.865126212217e-03       1.962806394203e+04 
       6.991588374639e-03       1.983678418467e+04 
       7.118152417178e-03       2.004150982246e+04 
       7.244813765004e-03       2.024199296707e+04 
       7.371568154296e-03       2.043832835006e+04 
       7.498411608278e-03       2.063108790774e+04 
       7.625340415431e-03       2.082001719896e+04 
       7.752351109651e-03       2.100519345666e+04 
       7.879440452159e-03       2.118604344013e+04 
       8.006605414996e-03       2.136309751342e+04 
       8.133843165945e-03       2.153658479065e+04 
       8.261151054735e-03       2.170594133356e+04 
       8.388526600423e-03       2.187219378172e+04 
       8.515967479818e-03       2.203532437534e+04 
       8.643471516874e-03       2.219403758445e+04 
       8.771036672942e-03       2.234921399976e+04 
       8.898661037817e-03       2.250020882490e+04 
       9.026342821500e-03       2.264899834395e+04 
       9.154080346613e-03       2.279280704695e+04 
       9.281872041414e-03       2.293412200557e+04 
       9.409716433350e-03       2.307284500461e+04 
       9.537612143111e-03       2.320673162058e+04 
       9.665557879136e-03       2.333863165835e+04 
       9.793552432538e-03       2.346581723686e+04 
       9.921594672403e-03       2.359131613431e+04 
       1.004968354145e-02       2.371206519499e+04 
       1.017781805199e-02       2.383040563873e+04 
       1.030599728223e-02       2.394572046278e+04 
       1.043422037278e-02       2.405785889143e+04 
       1.056248652344e-02       2.416786926800e+04 
       1.069079499026e-02       2.427326434178e+04 
       1.081914508275e-02       2.437652558467e+04 
       1.094753616130e-02       2.447738551817e+04 
       1.107596763482e-02       2.457413690223e+04 
       1.120443895850e-02       2.466781476123e+04 
       1.133294963177e-02       2.475999936711e+04 
       1.146149919634e-02       2.484873334106e+04 
       1.159008723447e-02       2.493430658603e+04 
       1.171871336726e-02       2.501789551394e+04 
       1.184737725315e-02       2.509817341180e+04 
       1.197607858644e-02       2.517597359902e+04 
       1.210481709599e-02       2.525217247067e+04 
       1.223359254397e-02       2.532465567044e+04 
       1.236240472470e-02       2.539414119818e+04 
       1.249125346356e-02       2.546226237066e+04 
       1.262013861604e-02       2.552693185711e+04 
       1.274906006677e-02       2.558813992978e+04 
       1.287801772870e-02       2.564926272882e+04 
       1.300701154226e-02       2.570695678295e+04 
       1.313604147468e-02       2.576106329566e+04 
       1.326510751927e-02       2.581335084792e+04 
       1.339420969481e-02       2.586482938723e+04 
       1.352334804497e-02       2.591303733021e+04 
       1.365252263779e-02       2.595875967171e+04 
       1.378173356517e-02       2.600099486240e+04 
       1.391098094243e-02       2.604346535627e+04 
       1.404026490796e-02       2.608132991708e+04 
       1.416958562274e-02       2.611866477756e+04 
       1.429894327013e-02       2.615404826921e+04 
       1.442833805549e-02       2.618671395418e+04 
       1.455777020595e-02       2.621565423538e+04 
       1.468723997016e-02       2.624554996788e+04 
       1.481674761809e-02       2.627187517512e+04 
       1.494629344085e-02       2.629618327816e+04 
       1.507587775056e-02       2.631700618737e+04 
       1.520550088020e-02       2.633845843256e+04 
       1.533516318350e-02       2.635710893039e+04 
       1.546486503490e-02       2.637356102415e+04 
       1.559460682950e-02       2.638800664913e+04 
       1.572438898296e-02       2.640092304476e+04 
       1.585421193160e-02       2.641180215604e+04 
       1.598407613232e-02       2.642090804771e+04 
       1.611398206266e-02       2.642837625978e+04 
       1.624393022090e-02       2.643366971540e+04 
       1.637392112607e-02       2.643662621273e+04 
       1.650395531805e-02       2.643864798393e+04 
       1.663403335772e-02       2.643893889403e+04 
       1.676415582706e-02       2.643778267042e+04 
       1.689432332929e-02       2.643553693166e+04 
       1.702453648904e-02       2.642995211052e+04 
       1.715479595256e-02       2.642377076207e+04 
       1.728510238785e-02       2.641586000294e+04 
       1.741545648495e-02       2.640622437386e+04 
       1.754585895614e-02       2.639534055115e+04 
       1.767631053616e-02       2.638353910918e+04 
       1.780681198252e-02       2.636914475747e+04 
       1.793736407578e-02       2.635344915002e+04 
       1.806796761982e-02       2.633680071406e+04 
       1.819862344216e-02       2.631867042765e+04 
       1.832933239432e-02       2.629861466525e+04 
       1.846009535214e-02       2.627747891783e+04 
       1.859091321616e-02       2.625539045490e+04 
       1.872178691199e-02       2.623127811486e+04 
       1.885271739075e-02       2.620678790960e+04 
       1.898370562940e-02       2.618033405667e+04 
       1.911475263128e-02       2.615223443260e+04 
       1.924585942648e-02       2.612289221242e+04 
       1.937702707235e-02       2.609325372486e+04 
       1.950825665398e-02       2.606164508364e+04 
       1.963954928469e-02       2.602907981172e+04 
       1.977090610659e-02       2.599464303677e+04 
       1.990232829108e-02       2.595962208135e+04 
       2.003381703944e-02       2.592391853304e+04 
       2.016537358340e-02       2.588676177823e+04 
       2.029699918577e-02       2.584805516819e+04 
       2.042869514102e-02       2.580806242243e+04 
       2.056046277595e-02       2.576831008291e+04 
       2.069230345036e-02       2.572642813733e+04 
       2.082421855770e-02       2.568340035223e+04 
       2.095620952585e-02       2.564015193878e+04 
       2.108827781777e-02       2.559477809936e+04 
       2.122042493233e-02       2.554947046058e+04 
       2.135265240503e-02       2.550301065577e+04 
       2.148496180884e-02       2.545540175712e+04 
       2.161735475504e-02       2.540695892003e+04 
       2.174983289404e-02       2.535686226864e+04 
       2.188239791628e-02       2.530656949605e+04 
       2.201505155318e-02       2.525539915401e+04 
       2.214779557801e-02       2.520383816098e+04 
       2.228063180691e-02       2.515045610656e+04 
       2.241356209988e-02       2.509670611817e+04 
       2.254658836181e-02       2.504218308890e+04 
       2.267971254354e-02       2.498689728977e+04 
       2.281293664295e-02       2.493083140284e+04 
       2.294626270611e-02       2.487393844796e+04 
       2.307969282844e-02       2.481657255772e+04 
       2.321322915589e-02       2.475802456806e+04 
       2.334687388624e-02       2.469898335504e+04 
       2.348062927031e-02       2.463915007441e+04 
       2.361449761332e-02       2.457923867589e+04 
       2.374848127625e-02       2.451817465063e+04 
       2.388258267723e-02       2.445577890546e+04 
       2.401680429303e-02       2.439345758920e+04 
       2.415114866050e-02       2.433043636656e+04 
       2.428561837815e-02       2.426683320734e+04 
       2.442021610774e-02       2.420261211797e+04 
       2.455494457594e-02       2.413771787180e+04 
       2.468980657599e-02       2.407264942806e+04 
       2.482480496949e-02       2.400650238780e+04 
       2.495994268821e-02       2.393991962332e+04 
       2.509522273595e-02       2.387294493620e+04 
       2.523064819046e-02       2.380547666808e+04 
       2.536622220549e-02       2.373751535260e+04 
       2.550194801281e-02       2.366894257597e+04 
       2.563782892435e-02       2.359995676258e+04 
       2.577386833442e-02       2.353050349707e+04 
       2.591006972199e-02       2.346085009384e+04 
       2.604643665305e-02       2.339055135833e+04 
       2.618297278305e-02       2.331974886956e+04 
       2.631968185940e-02       2.324856003320e+04 
       2.645656772415e-02       2.317705381001e+04 
       2.659363431662e-02       2.310510046458e+04 
       2.673088567625e-02       2.303276548224e+04 
       2.686832594546e-02       2.295990773978e+04 
       2.700595937272e-02       2.288700047542e+04 
       2.714379031557e-02       2.281358017231e+04 
       2.728182324392e-02       2.273976929494e+04 
       2.742006274336e-02       2.266579303193e+04 
       2.755851351862e-02       2.259144679489e+04 
       2.769718039717e-02       2.251685941728e+04 
       2.783606833295e-02       2.244181663717e+04 
       2.797518241022e-02       2.236658148880e+04 
       2.811452784758e-02       2.229103545940e+04 
       2.825411000214e-02       2.221534358683e+04 
       2.839393437385e-02       2.213934871733e+04 
       2.853400660993e-02       2.206311723386e+04 
       2.867433250963e-02       2.198663516870e+04 
       2.881491802901e-02       2.190988672500e+04 
       2.895576928597e-02       2.183295836266e+04 
       2.909689256556e-02       2.175576118053e+04 
       2.923829432535e-02       2.167848593138e+04 
       2.937998120115e-02       2.160099590343e+04 
       2.952196001288e-02       2.152329137918e+04 
       2.966423777075e-02       2.144543788681e+04 
       2.980682168161e-02       2.136743830445e+04 
       2.994971915566e-02       2.128932191255e+04 
       3.009293781338e-02       2.121100394471e+04 
       3.023648549274e-02       2.113265325303e+04 
       3.038037025680e-02       2.105409768886e+04 
       3.052460040156e-02       2.097536535942e+04 
       3.066918446420e-02       2.089659724740e+04 
       3.081413123164e-02       2.081774088073e+04 
       3.095944974951e-02       2.073873651377e+04 
       3.110514933154e-02       2.065963913498e+04 
       3.125123956930e-02       2.058057571622e+04 
       3.139773034247e-02       2.050132472518e+04 
       3.154463182957e-02       2.042209494034e+04 
       3.169195451907e-02       2.034271805428e+04 
       3.183970922123e-02       2.026309006401e+04 
       3.198790708030e-02       2.018373730873e+04 
       3.213655958741e-02       2.010411984384e+04 
       3.228567859410e-02       2.002453814748e+04 
       3.243527632639e-02       1.994483680287e+04 
       3.258536539969e-02       1.986525767128e+04 
       3.273595883433e-02       1.978549693658e+04 
       3.288707007195e-02       1.970570353371e+04 
       3.303871299267e-02       1.962604835898e+04 
       3.319090193316e-02       1.954632812795e+04 
       3.334365170564e-02       1.946650809560e+04 
       3.349697761788e-02       1.938664392572e+04 
       3.365089549423e-02       1.930691895104e+04 
       3.380542169780e-02       1.922716644663e+04 
       3.396057315381e-02       1.914745847507e+04 
       3.411636737427e-02       1.906761402719e+04 
       3.427282248389e-02       1.898782233208e+04 
       3.442995724760e-02       1.890806815866e+04 
       3.458779109948e-02       1.882839691118e+04 
       3.474634417341e-02       1.874875941076e+04 
       3.490563733548e-02       1.866892441155e+04 
       3.506569221822e-02       1.858930998807e+04 
       3.522653125693e-02       1.850977235025e+04 
       3.538817772815e-02       1.843015837680e+04 
       3.555065579040e-02       1.835054687206e+04 
       3.571399052746e-02       1.827100573013e+04 
       3.587820799428e-02       1.819157242945e+04 
       3.604333526583e-02       1.811203365583e+04 
       3.620940048891e-02       1.803261221496e+04 
       3.637643293741e-02       1.795333334691e+04 
       3.654446307104e-02       1.787394437231e+04 
       3.671352259802e-02       1.779464203055e+04 
       3.688364454186e-02       1.771532578227e+04 
       3.705486331264e-02       1.763615066271e+04 
       3.722721478320e-02       1.755691895170e+04 
       3.740073637058e-02       1.747782223691e+04 
       3.757546712313e-02       1.739872038434e+04 
       3.775144781384e-02       1.731961702927e+04 
       3.792872104041e-02       1.724049891909e+04 
       3.810733133259e-02       1.716149967192e+04 
       3.828732526747e-02       1.708263604834e+04 
       3.846875159346e-02       1.700356346123e+04 
       3.865166136372e-02       1.692468127749e+04 
       3.883610807984e-02       1.684584264846e+04 
       3.902214784692e-02       1.676691024640e+04 
       3.920983954089e-02       1.668805591020e+04 
       3.939924498945e-02       1.660922275659e+04 
       3.959042916785e-02       1.653047776406e+04 
       3.978346041101e-02       1.645153973876e+04 
       3.997841064364e-02       1.637275922599e+04 
       4.017535563022e-02       1.629398881774e+04 
       4.037437524684e-02       1.621520422127e+04 
       4.057555377734e-02       1.613630019061e+04 
       4.077898023617e-02       1.605740700351e+04 
       4.098474872115e-02       1.597861584276e+04 
       4.119295879926e-02       1.589961689393e+04 
       4.140371592927e-02       1.582071615968e+04 
       4.161713192544e-02       1.574164779427e+04 
       4.183332546728e-02       1.566258045935e+04 
       4.205242266051e-02       1.558337891201e+04 
       4.227455765594e-02       1.550423400632e+04 
       4.249987333302e-02       1.542480129641e+04 
       4.272852205660e-02       1.534550477117e+04 
       4.296066651606e-02       1.526597167983e+04 
       4.319648065795e-02       1.518618158730e+04 
       4.343615072444e-02       1.510637486332e+04 
       4.367987641227e-02       1.502660910756e+04 
       4.392787216902e-02       1.494633535451e+04 
       4.418036864630e-02       1.486606072890e+04 
       4.443761433289e-02       1.478555659657e+04 
       4.469987739467e-02       1.470479534027e+04 
       4.496744775286e-02       1.462382582607e+04 
       4.524063943798e-02       1.454241249626e+04 
       4.551979326347e-02       1.446088570817e+04 
       4.580527987131e-02       1.437890758895e+04 
       4.609750321219e-02       1.429659967003e+04 
       4.639690453455e-02       1.421404169743e+04 
       4.670396697231e-02       1.413089841154e+04 
       4.701922083920e-02       1.404747263288e+04 
       4.734324976040e-02       1.396340413187e+04 
       4.767669780045e-02       1.387891063919e+04 
       4.802027778137e-02       1.379364206167e+04 
       4.837478102884e-02       1.370791639912e+04 
       4.874108883924e-02       1.362112626177e+04 
       4.912018602971e-02       1.353373504532e+04 
       4.951317702103e-02       1.344592110912e+04 
       4.992130501422e-02       1.335631895721e+04 
       5.034597496334e-02       1.326616620998e+04 
       5.078878122704e-02       1.317464144223e+04 
       5.125154101122e-02       1.308238322072e+04 
       5.173633500761e-02       1.298783327645e+04 
       5.224555700359e-02       1.289224264376e+04 
       5.278197470437e-02       1.279481996443e+04 
       5.334880458383e-02       1.269534471000e+04 
       5.394980427121e-02       1.259279353618e+04 
       5.458938676792e-02       1.248847480986e+04 
       5.527276159302e-02       1.238075505943e+04 
       5.600610857470e-02       1.226891080220e+04 
       5.679678997950e-02       1.215269600569e+04 
       5.765360504358e-02       1.203116891223e+04 
       5.858708585043e-02       1.190316137594e+04 
       5.960982134470e-02       1.176680647884e+04 
       6.073677090361e-02       1.162046714662e+04 
       6.198548072200e-02       1.146090979891e+04 
