# total [l(l+1)/2pi] C_l's (units: [microK]^2)
# for l=2 to 3000, i.e. number of multipoles equal to 2999
#
# -> if you don't want to see such a header, set 'headers' to 'no' in input file
# -> for CMB lensing (d), these are C_l^dd for the deflection field.
#    Remember the conversion factors:
#    C_l^dd (deflection) = l(l+1) C_l^phi-phi
#    C_l^gg (shear/convergence) = 1/4 (l(l+1))^2 C_l^phi-phi
#
# 1:l     2:TT                     3:EE                     4:BB                     5:TE                     6:dd                     7:dT                     8:dE                 
    2       1.109836248944e+03       5.548036002608e-02       0.000000000000e+00       3.621467081489e+00       5.288748065783e-08       3.237816401477e-03      -1.696646003381e-05 
    3       1.046104165279e+03       9.398073612776e-02       0.000000000000e+00       4.557458666902e+00       6.512030220053e-08       3.264194822041e-03      -2.110523177902e-05 
    4       9.831825041524e+02       1.097570888021e-01       0.000000000000e+00       4.714366658762e+00       7.541115973716e-08       3.207834081206e-03      -2.173938750084e-05 
    5       9.333020357994e+02       1.015247108781e-01       0.000000000000e+00       4.414741534655e+00       8.439805791125e-08       3.118330863284e-03      -1.976828570089e-05 
    6       8.965781202764e+02       7.835039886907e-02       0.000000000000e+00       3.884173656725e+00       9.228560895547e-08       3.013774682396e-03      -1.598960123841e-05 
    7       8.705856013617e+02       5.192558567937e-02       0.000000000000e+00       3.276018736425e+00       9.926989630410e-08       2.902860837342e-03      -1.124009537960e-05 
    8       8.532459815673e+02       3.066344140914e-02       0.000000000000e+00       2.682178272709e+00       1.054991417101e-07       2.791020746442e-03      -6.306472678839e-06 
    9       8.427074508398e+02       1.769102721820e-02       0.000000000000e+00       2.157396059541e+00       1.110644738885e-07       2.682059021097e-03      -1.853399158391e-06 
   10       8.372432443559e+02       1.186565948861e-02       0.000000000000e+00       1.732920469264e+00       1.160331769957e-07       2.578110482066e-03       1.638514873325e-06 
   11       8.360083002031e+02       1.014046991780e-02       0.000000000000e+00       1.421349196855e+00       1.173646354215e-07       2.489170711558e-03       3.884548168855e-06 
   12       8.378158786176e+02       9.702316710796e-03       0.000000000000e+00       1.220719350249e+00       1.211971456236e-07       2.389712452302e-03       4.872738668861e-06 
   13       8.421069183481e+02       9.043018303562e-03       0.000000000000e+00       1.118077695636e+00       1.246304169232e-07       2.304596960920e-03       4.734212948000e-06 
   14       8.481935658391e+02       7.943789469188e-03       0.000000000000e+00       1.093631260390e+00       1.277088491903e-07       2.218098657672e-03       3.694165849197e-06 
   15       8.559997945219e+02       6.855179419352e-03       0.000000000000e+00       1.125018173767e+00       1.304692454801e-07       2.141889965234e-03       2.108704984754e-06 
   16       8.649659168199e+02       6.240502125570e-03       0.000000000000e+00       1.189639675415e+00       1.329449987395e-07       2.071619925218e-03       3.224365930563e-07 
   17       8.749957130892e+02       6.231467388917e-03       0.000000000000e+00       1.267828734337e+00       1.351641754536e-07       2.005193613987e-03      -1.352123078273e-06 
   18       8.857359156167e+02       6.620396612449e-03       0.000000000000e+00       1.346013483965e+00       1.370978913873e-07       1.941953610209e-03      -2.672720895026e-06 
   19       8.972604187644e+02       7.158495419511e-03       0.000000000000e+00       1.416899557304e+00       1.389260438825e-07       1.883167167259e-03      -3.503160034464e-06 
   20       9.094007483900e+02       7.590611132823e-03       0.000000000000e+00       1.474654316019e+00       1.405003492302e-07       1.826224698682e-03      -3.795065743673e-06 
   21       9.221680971490e+02       7.939753751961e-03       0.000000000000e+00       1.519769799409e+00       1.419137634348e-07       1.771104117646e-03      -3.586190234007e-06 
   22       9.353929352041e+02       8.344901714522e-03       0.000000000000e+00       1.555653409322e+00       1.431397801450e-07       1.716385066577e-03      -3.012332325540e-06 
   23       9.490723816293e+02       8.953333674563e-03       0.000000000000e+00       1.585975615366e+00       1.442530068329e-07       1.663316221216e-03      -2.218705084450e-06 
   24       9.631022894046e+02       9.906031935675e-03       0.000000000000e+00       1.615007791281e+00       1.452021090792e-07       1.612642453860e-03      -1.392780595748e-06 
   25       9.775166349190e+02       1.120695751642e-02       0.000000000000e+00       1.646318902777e+00       1.460450300270e-07       1.565395650267e-03      -6.707703164981e-07 
   26       9.922656474421e+02       1.280395445169e-02       0.000000000000e+00       1.682978606062e+00       1.467587680568e-07       1.521377199465e-03      -1.737098077254e-07 
   27       1.007278979191e+03       1.464814543395e-02       0.000000000000e+00       1.725252146689e+00       1.473719130865e-07       1.480081599916e-03       4.960700572017e-08 
   28       1.022418942155e+03       1.669020260209e-02       0.000000000000e+00       1.771979087630e+00       1.478459117563e-07       1.440101192806e-03      -5.923520809465e-09 
   29       1.037757191119e+03       1.892566493625e-02       0.000000000000e+00       1.820907818800e+00       1.482585051387e-07       1.402036683996e-03      -3.052066475613e-07 
   30       1.053350748552e+03       2.136299760105e-02       0.000000000000e+00       1.868726993916e+00       1.486314579457e-07       1.366410003712e-03      -7.677550812145e-07 
   31       1.069179267656e+03       2.400589162105e-02       0.000000000000e+00       1.911504436313e+00       1.488797696535e-07       1.332865063438e-03      -1.281143597477e-06 
   32       1.085268616363e+03       2.683773066254e-02       0.000000000000e+00       1.946289343650e+00       1.490509868848e-07       1.301182325031e-03      -1.770890103606e-06 
   33       1.101593560613e+03       2.983053469077e-02       0.000000000000e+00       1.970024595165e+00       1.491751679741e-07       1.270405462942e-03      -2.159421602872e-06 
   34       1.118079368735e+03       3.296017877941e-02       0.000000000000e+00       1.979778880486e+00       1.492136214293e-07       1.239060339466e-03      -2.366629540988e-06 
   35       1.134756369289e+03       3.624724721908e-02       0.000000000000e+00       1.975126105255e+00       1.492001327239e-07       1.207701942724e-03      -2.384011879461e-06 
   36       1.151646735913e+03       3.973100709172e-02       0.000000000000e+00       1.956618465733e+00       1.491419071828e-07       1.177417741547e-03      -2.237963800261e-06 
   37       1.168737502752e+03       4.345205467212e-02       0.000000000000e+00       1.925127223010e+00       1.489974444165e-07       1.149060186352e-03      -1.970437401456e-06 
   38       1.186049412254e+03       4.742760515592e-02       0.000000000000e+00       1.881632241812e+00       1.488074537425e-07       1.122899925533e-03      -1.623513429720e-06 
   39       1.203581976257e+03       5.166838603048e-02       0.000000000000e+00       1.827405651088e+00       1.486098341940e-07       1.098693634570e-03      -1.251878826170e-06 
   40       1.221289147974e+03       5.618524238885e-02       0.000000000000e+00       1.764098043246e+00       1.483904869739e-07       1.075657425748e-03      -9.295712083530e-07 
   41       1.239107138177e+03       6.098720335504e-02       0.000000000000e+00       1.693259367264e+00       1.480995149049e-07       1.052774258872e-03      -7.324022621559e-07 
   42       1.257059832496e+03       6.607494696112e-02       0.000000000000e+00       1.614658360003e+00       1.477608468291e-07       1.030147581086e-03      -6.684415253750e-07 
   43       1.275179934357e+03       7.144519202448e-02       0.000000000000e+00       1.527455011457e+00       1.474014301083e-07       1.008133807837e-03      -7.182641581851e-07 
   44       1.293477166319e+03       7.709229958194e-02       0.000000000000e+00       1.430644446754e+00       1.470135060436e-07       9.869656219264e-04      -8.507464923834e-07 
   45       1.311947132316e+03       8.301034933694e-02       0.000000000000e+00       1.323144242882e+00       1.465676099893e-07       9.667611378762e-04      -1.027841168131e-06 
   46       1.330606678494e+03       8.920044317939e-02       0.000000000000e+00       1.204114472573e+00       1.460893964510e-07       9.476269879317e-04      -1.225459765215e-06 
   47       1.349465050933e+03       9.566534409601e-02       0.000000000000e+00       1.072713876441e+00       1.456087877633e-07       9.295520275598e-04      -1.419120414190e-06 
   48       1.368511878555e+03       1.024074339932e-01       0.000000000000e+00       9.280038044679e-01       1.451341818946e-07       9.123477024964e-04      -1.577702787511e-06 
   49       1.387715438104e+03       1.094286997438e-01       0.000000000000e+00       7.689424609587e-01       1.446459197654e-07       8.956199155548e-04      -1.662743906642e-06 
   50       1.407039436117e+03       1.167307464483e-01       0.000000000000e+00       5.946620761036e-01       1.441090521137e-07       8.789111555875e-04      -1.639731626476e-06 
   51       1.426502750326e+03       1.243148738313e-01       0.000000000000e+00       4.054024672662e-01       1.435384589951e-07       8.622677731333e-04      -1.519252756347e-06 
   52       1.446132905291e+03       1.321819964633e-01       0.000000000000e+00       2.018209344126e-01       1.429555394164e-07       8.458493910673e-04      -1.331103381759e-06 
   53       1.465948129561e+03       1.403326059876e-01       0.000000000000e+00      -1.526113892291e-02       1.423677119539e-07       8.297682861501e-04      -1.114579999530e-06 
   54       1.485956492036e+03       1.487667584478e-01       0.000000000000e+00      -2.448507264863e-01       1.417645770130e-07       8.140803918239e-04      -9.194623665827e-07 
   55       1.506160423660e+03       1.574842355414e-01       0.000000000000e+00      -4.860178909424e-01       1.411268363576e-07       7.988071033044e-04      -7.945053140056e-07 
   56       1.526573576380e+03       1.664851043214e-01       0.000000000000e+00      -7.386855816877e-01       1.404688775361e-07       7.840328894735e-04      -7.453936405083e-07 
   57       1.547206639587e+03       1.757692743399e-01       0.000000000000e+00      -1.003022799322e+00       1.398093853175e-07       7.698269734814e-04      -7.631019156641e-07 
   58       1.568061682148e+03       1.853363301365e-01       0.000000000000e+00      -1.279221334761e+00       1.391578436149e-07       7.562083543279e-04      -8.347354930981e-07 
   59       1.589131498590e+03       1.951855253425e-01       0.000000000000e+00      -1.567497649984e+00       1.385121739835e-07       7.431385043686e-04      -9.431341006692e-07 
   60       1.610398955279e+03       2.053157767848e-01       0.000000000000e+00      -1.868094758785e+00       1.378561585014e-07       7.305137542655e-04      -1.066460815996e-06 
   61       1.631845837879e+03       2.157252569168e-01       0.000000000000e+00      -2.181237952814e+00       1.371680616287e-07       7.182090805856e-04      -1.182886705158e-06 
   62       1.653483193485e+03       2.264100775457e-01       0.000000000000e+00      -2.506986112052e+00       1.364579557926e-07       7.062455240909e-04      -1.287508394879e-06 
   63       1.675326669894e+03       2.373652988470e-01       0.000000000000e+00      -2.845350204906e+00       1.357418544919e-07       6.946646401801e-04      -1.380332070171e-06 
   64       1.697387269940e+03       2.485852866938e-01       0.000000000000e+00      -3.196336905903e+00       1.350305089862e-07       6.834778847286e-04      -1.461678542165e-06 
   65       1.719670999147e+03       2.600636940169e-01       0.000000000000e+00      -3.559949011982e+00       1.343281061366e-07       6.726626792630e-04      -1.532217241330e-06 
   66       1.742178513384e+03       2.717934421634e-01       0.000000000000e+00      -3.936185858789e+00       1.336308567790e-07       6.621583236718e-04      -1.593001415609e-06 
   67       1.764904766507e+03       2.837667022562e-01       0.000000000000e+00      -4.325043736975e+00       1.329254711446e-07       6.518617564530e-04      -1.645504533467e-06 
   68       1.787843566344e+03       2.959756991830e-01       0.000000000000e+00      -4.726496203409e+00       1.321957489569e-07       6.416652300672e-04      -1.691425806313e-06 
   69       1.811003102200e+03       3.084153544056e-01       0.000000000000e+00      -5.140429451642e+00       1.314494422670e-07       6.315929249866e-04      -1.731950232835e-06 
   70       1.834392945116e+03       3.210811476269e-01       0.000000000000e+00      -5.566694533480e+00       1.306991411465e-07       6.216976965824e-04      -1.768332347176e-06 
   71       1.858019195170e+03       3.339683438966e-01       0.000000000000e+00      -6.005126209219e+00       1.299542894375e-07       6.120210583690e-04      -1.802131457775e-06 
   72       1.881884254665e+03       3.470719960105e-01       0.000000000000e+00      -6.455542849747e+00       1.292204576291e-07       6.025915961947e-04      -1.835235227584e-06 
   73       1.905986601313e+03       3.603869469078e-01       0.000000000000e+00      -6.917746338636e+00       1.284985602029e-07       5.934233242096e-04      -1.869883939282e-06 
   74       1.930320561416e+03       3.739078320703e-01       0.000000000000e+00      -7.391521974247e+00       1.277840158444e-07       5.845139826123e-04      -1.908695445460e-06 
   75       1.954876083051e+03       3.876290819200e-01       0.000000000000e+00      -7.876638371828e+00       1.270658489200e-07       5.758432771746e-04      -1.954690803813e-06 
   76       1.979643276397e+03       4.015438473597e-01       0.000000000000e+00      -8.372832882455e+00       1.263315480559e-07       5.673856177758e-04      -2.010459360745e-06 
   77       2.004627491957e+03       4.156405448887e-01       0.000000000000e+00      -8.879764996575e+00       1.255859793325e-07       5.591565403090e-04      -2.075328295921e-06 
   78       2.029836592618e+03       4.299056829026e-01       0.000000000000e+00      -9.397054226032e+00       1.248375231480e-07       5.511756055918e-04      -2.147470804286e-06 
   79       2.055276303458e+03       4.443248632950e-01       0.000000000000e+00      -9.924293444911e+00       1.240924459668e-07       5.434518799290e-04      -2.224675540233e-06 
   80       2.080950082685e+03       4.588827617741e-01       0.000000000000e+00      -1.046104849465e+01       1.233544764717e-07       5.359828258966e-04      -2.304319925218e-06 
   81       2.106858992578e+03       4.735631081793e-01       0.000000000000e+00      -1.100685778914e+01       1.226243528786e-07       5.287531583170e-04      -2.383342755209e-06 
   82       2.133001570419e+03       4.883486667975e-01       0.000000000000e+00      -1.156123191985e+01       1.218993406656e-07       5.217336654253e-04      -2.458216107959e-06 
   83       2.159373699434e+03       5.032212166797e-01       0.000000000000e+00      -1.212365326093e+01       1.211727199742e-07       5.148799952264e-04      -2.524916550120e-06 
   84       2.185971046528e+03       5.181632956268e-01       0.000000000000e+00      -1.269363161159e+01       1.204370133013e-07       5.081474633318e-04      -2.579727627537e-06 
   85       2.212797122530e+03       5.331638074519e-01       0.000000000000e+00      -1.327088258675e+01       1.196961779204e-07       5.015425532751e-04      -2.621944740988e-06 
   86       2.239856327751e+03       5.482133125163e-01       0.000000000000e+00      -1.385517821331e+01       1.189564031165e-07       4.950818739393e-04      -2.651785861471e-06 
   87       2.267151419330e+03       5.633023565207e-01       0.000000000000e+00      -1.444629406107e+01       1.182224405824e-07       4.887766924853e-04      -2.669628586164e-06 
   88       2.294683425318e+03       5.784214804629e-01       0.000000000000e+00      -1.504400978971e+01       1.174973460752e-07       4.826323945621e-04      -2.676021779950e-06 
   89       2.322451558749e+03       5.935612305957e-01       0.000000000000e+00      -1.564810969566e+01       1.167822051794e-07       4.766479288700e-04      -2.671697509647e-06 
   90       2.350453131722e+03       6.087121683850e-01       0.000000000000e+00      -1.625838325905e+01       1.160758428039e-07       4.708152360765e-04      -2.657583270966e-06 
   91       2.378683469474e+03       6.238648804678e-01       0.000000000000e+00      -1.687462569057e+01       1.153745160413e-07       4.651186620847e-04      -2.634814508180e-06 
   92       2.407135824463e+03       6.390099886101e-01       0.000000000000e+00      -1.749663847844e+01       1.146715900152e-07       4.595343556542e-04      -2.604747426519e-06 
   93       2.435803601836e+03       6.541374006181e-01       0.000000000000e+00      -1.812417564255e+01       1.139602711389e-07       4.540388933038e-04      -2.568772233684e-06 
   94       2.464687605373e+03       6.692339125668e-01       0.000000000000e+00      -1.875677206250e+01       1.132435415738e-07       4.486387724745e-04      -2.527675092897e-06 
   95       2.493789727543e+03       6.842852626795e-01       0.000000000000e+00      -1.939389022115e+01       1.125265452400e-07       4.433464031275e-04      -2.482156916302e-06 
   96       2.523110681741e+03       6.992768577877e-01       0.000000000000e+00      -2.003497200106e+01       1.118136360792e-07       4.381711691708e-04      -2.433026251734e-06 
   97       2.552649948096e+03       7.141937728690e-01       0.000000000000e+00      -2.067943848617e+01       1.111082385909e-07       4.331191447616e-04      -2.381204975983e-06 
   98       2.582405719271e+03       7.290207505861e-01       0.000000000000e+00      -2.132668976345e+01       1.104127004495e-07       4.281928031021e-04      -2.327734104728e-06 
   99       2.612374846272e+03       7.437422008255e-01       0.000000000000e+00      -2.197610472452e+01       1.097281370322e-07       4.233907177304e-04      -2.273779719140e-06 
  100       2.642552784252e+03       7.583422002362e-01       0.000000000000e+00      -2.262704086730e+01       1.090542676869e-07       4.187072563061e-04      -2.220639009139e-06 
  101       2.672933538318e+03       7.728044917680e-01       0.000000000000e+00      -2.327883409767e+01       1.083892435722e-07       4.141322668899e-04      -2.169746433314e-06 
  102       2.703509609336e+03       7.871124842108e-01       0.000000000000e+00      -2.393079853110e+01       1.077294668981e-07       4.096507567176e-04      -2.122679995515e-06 
  103       2.734271939735e+03       8.012492517326e-01       0.000000000000e+00      -2.458222629432e+01       1.070694013983e-07       4.052425634697e-04      -2.081167638099e-06 
  104       2.765211840862e+03       8.151983146898e-01       0.000000000000e+00      -2.523243259384e+01       1.064036242139e-07       4.008887341377e-04      -2.046724377174e-06 
  105       2.796327188303e+03       8.289461031761e-01       0.000000000000e+00      -2.588089828245e+01       1.057340684406e-07       3.965928836592e-04      -2.019465156353e-06 
  106       2.827616966317e+03       8.424798269519e-01       0.000000000000e+00      -2.652714627128e+01       1.050643466614e-07       3.923635237984e-04      -1.999064296342e-06 
  107       2.859079328999e+03       8.557867319172e-01       0.000000000000e+00      -2.717069827808e+01       1.043975958089e-07       3.882075931385e-04      -1.985098513845e-06 
