# dimensionless total lensed [l(l+1)/2pi] C_l's
# for l=2 to 3000, i.e. number of multipoles equal to 2999
#
# -> if you prefer output in CAMB/HealPix/LensPix units/order, set 'format' to 'camb' in input file
# -> if you don't want to see such a header, set 'headers' to 'no' in input file
# -> for CMB lensing (phi), these are C_l^phi-phi for the lensing potential.
#    Remember the conversion factors:
#    C_l^dd (deflection) = l(l+1) C_l^phi-phi
#    C_l^gg (shear/convergence) = 1/4 (l(l+1))^2 C_l^phi-phi
#
# 1:l     2:TT                     3:EE                     4:TE                     5:BB                     6:phiphi                 7:TPhi                   8:Ephi               
    2       1.391560708605e-10       6.391259816138e-15       3.829841974375e-13       2.400857483212e-19       7.439611195365e-09       4.919129372896e-10      -2.154771887798e-12 
    3       1.324996620843e-10       9.989131083806e-15       4.722107067015e-13       4.803860080341e-19       4.682990600698e-09       3.606622906273e-10      -1.829689908274e-12 
    4       1.251106042145e-10       1.056214245530e-14       4.800722507992e-13       8.011116762839e-19       3.286334731230e-09       2.791272074989e-10      -1.379427380077e-12 
    5       1.190925783477e-10       8.694003951206e-15       4.421115728733e-13       1.202525845955e-18       2.468033510495e-09       2.241275223180e-10      -9.401418350462e-13 
    6       1.146392359733e-10       5.889816029463e-15       3.822654749341e-13       1.684938494135e-18       1.936131753497e-09       1.846867282086e-10      -5.607294915929e-13 
    7       1.115272770857e-10       3.446850066884e-15       3.169668471425e-13       2.248695101314e-18       1.566738910732e-09       1.552069559265e-10      -2.631853993271e-13 
    8       1.095230799128e-10       1.927503889242e-15       2.561343418847e-13       2.894164137886e-18       1.298673625937e-09       1.325283584301e-10      -5.315922936874e-14 
    9       1.083636488351e-10       1.246220840046e-15       2.055093924798e-13       3.621723958194e-18       1.097361210905e-09       1.146831173734e-10       7.474571115183e-14 
   10       1.078547673116e-10       1.030061441981e-15       1.678407284092e-13       4.431749667854e-18       9.414335508561e-10       1.003552093174e-10       1.335039320001e-13 
   11       1.078686565627e-10       9.457612542766e-16       1.434292927428e-13       5.324600531214e-18       7.944747362356e-10       8.878953851460e-11       1.400894220185e-13 
   12       1.082893386085e-10       8.414906425160e-16       1.307961932170e-13       6.300608462163e-18       6.959632734939e-10       7.896643828482e-11       1.136147531837e-13 
   13       1.090025644616e-10       7.176821774736e-16       1.275030760984e-13       7.360068094294e-18       6.148908240785e-10       7.090366616213e-11       7.080577893751e-14 
   14       1.099615277675e-10       6.274038489044e-16       1.307193639564e-13       8.503228857381e-18       5.472766684971e-10       6.388129390119e-11       2.485184884655e-14 
   15       1.111473029477e-10       5.995770355786e-16       1.376849034227e-13       9.730289399326e-18       4.902339410384e-10       5.792328675036e-11      -1.411132553883e-14 
   16       1.124671338484e-10       6.209489807687e-16       1.461914551888e-13       1.104139458975e-17       4.416297561438e-10       5.277665435876e-11      -4.075211405594e-14 
   17       1.139028112056e-10       6.598882867910e-16       1.548112227591e-13       1.243663522764e-17       3.998497346844e-10       4.829041840989e-11      -5.356370965552e-14 
   18       1.154792091555e-10       6.950332701039e-16       1.626527945511e-13       1.391604909509e-17       3.635162318751e-10       4.435322636266e-11      -5.412890225386e-14 
   19       1.171855486242e-10       7.321020751336e-16       1.695712874654e-13       1.547963276501e-17       3.320747753698e-10       4.089707938886e-11      -4.554554727095e-14 
   20       1.189444239757e-10       7.863864435267e-16       1.757110173787e-13       1.712733415789e-17       3.043339188351e-10       3.778368497372e-11      -3.239568480915e-14 
   21       1.207699231049e-10       8.700891761950e-16       1.814844184865e-13       1.885908149597e-17       2.798713671683e-10       3.497894465003e-11      -1.828173241796e-14 
   22       1.226746773580e-10       9.927669210108e-16       1.874296668308e-13       2.067477408169e-17       2.581144910543e-10       3.244456746661e-11      -6.721182640215e-15 
   23       1.246551425264e-10       1.150974434501e-15       1.938523555580e-13       2.257431478418e-17       2.387731452104e-10       3.018308988029e-11       6.618227518354e-16 
   24       1.266818456906e-10       1.336219290886e-15       2.009378935416e-13       2.455760080493e-17       2.214091699690e-10       2.817772197987e-11       3.126653665107e-15 
   25       1.287513111884e-10       1.546184301820e-15       2.086160072042e-13       2.662455917809e-17       2.058242624174e-10       2.638602228876e-11       1.289154869462e-15 
   26       1.308554164684e-10       1.780122158582e-15       2.166427010054e-13       2.877513586686e-17       1.917421459923e-10       2.474217589176e-11      -3.465998347703e-15 
   27       1.330022127734e-10       2.037817738758e-15       2.245797485537e-13       3.100932527143e-17       1.789986277053e-10       2.323305113439e-11      -9.547372435766e-15 
   28       1.351945845623e-10       2.318877539657e-15       2.318908485539e-13       3.332716277404e-17       1.673788756684e-10       2.185101459685e-11      -1.520738754898e-14 
   29       1.374366136216e-10       2.622332253229e-15       2.382320345747e-13       3.572875209505e-17       1.568262849180e-10       2.059113807469e-11      -1.956177950190e-14 
   30       1.397196392013e-10       2.946637034364e-15       2.432756976319e-13       3.821425252610e-17       1.472301824413e-10       1.943657040140e-11      -2.190166551044e-14 
   31       1.420250414526e-10       3.290719189766e-15       2.467098777349e-13       4.078387649604e-17       1.383981346182e-10       1.836150870197e-11      -2.165358530551e-14 
   32       1.443570198958e-10       3.657711052603e-15       2.484975793185e-13       4.343789361281e-17       1.302864630891e-10       1.736523992345e-11      -1.925110915723e-14 
   33       1.467196127958e-10       4.052707679854e-15       2.487189846486e-13       4.617663737049e-17       1.228396626943e-10       1.644902955059e-11      -1.561755955079e-14 
   34       1.491101451195e-10       4.480820436045e-15       2.475000898600e-13       4.900049710015e-17       1.159557150114e-10       1.560771212748e-11      -1.180112518842e-14 
   35       1.515301837797e-10       4.943488219640e-15       2.449822001090e-13       5.190987456756e-17       1.096005466117e-10       1.483394599549e-11      -8.411556696967e-15 
   36       1.539767451800e-10       5.440876792553e-15       2.413479980353e-13       5.490521977535e-17       1.037242368211e-10       1.411419984677e-11      -6.003609044670e-15 
   37       1.564431537702e-10       5.972979591944e-15       2.367694772550e-13       5.798701285771e-17       9.825158673885e-11       1.343230482140e-11      -5.064339425372e-15 
   38       1.589349748432e-10       6.540150024703e-15       2.311898855956e-13       6.115564854432e-17       9.316922600523e-11       1.278789177520e-11      -5.439581308660e-15 
   39       1.614582622016e-10       7.142716165945e-15       2.244695879546e-13       6.441151734551e-17       8.846177392503e-11       1.218336705718e-11      -6.712567844377e-15 
   40       1.640146520081e-10       7.780822367439e-15       2.164419364173e-13       6.775503809064e-17       8.408532754788e-11       1.161866831742e-11      -8.347100720764e-15 
   41       1.666024026482e-10       8.454582396901e-15       2.069319803295e-13       7.118661123388e-17       7.998292119534e-11       1.109182643953e-11      -9.791416432821e-15 
   42       1.692211272630e-10       9.164628545561e-15       1.958246363283e-13       7.470645752404e-17       7.614295192529e-11       1.060145084624e-11      -1.084990578542e-14 
   43       1.718677575343e-10       9.911720455389e-15       1.830154089978e-13       7.831472889278e-17       7.255557655312e-11       1.014464749482e-11      -1.141877957803e-14 
   44       1.745347467568e-10       1.069659406703e-14       1.683911047362e-13       8.201154982606e-17       6.919516381879e-11       9.716103232867e-12      -1.138416423944e-14 
   45       1.772137383660e-10       1.151991021229e-14       1.518578137902e-13       8.579698334122e-17       6.602954471588e-11       9.309800687786e-12      -1.067531752069e-14 
   46       1.799088119190e-10       1.238208441389e-14       1.334360784136e-13       8.967092171289e-17       6.305402841602e-11       8.925212382760e-12      -9.444105121365e-15 
   47       1.826265239816e-10       1.328340450667e-14       1.131932765976e-13       9.363315952423e-17       6.026541393928e-11       8.562642190244e-12      -7.938561264650e-15 
   48       1.853720301872e-10       1.422407283173e-14       9.121866540732e-14       9.768341893766e-17       5.765172665699e-11       8.221410855457e-12      -6.456618232431e-15 
   49       1.881489235690e-10       1.520420233629e-14       6.762449407830e-14       1.018213457663e-16       5.519156441441e-11       7.899779562666e-12      -5.348828042734e-15 
   50       1.909592172487e-10       1.622388413560e-14       4.251281505598e-14       1.060465221404e-16       5.286059597555e-11       7.595541624583e-12      -4.923471738285e-15 
   51       1.938036620361e-10       1.728342086712e-14       1.586271426456e-14       1.103585176745e-16       5.065465285566e-11       7.308164217397e-12      -5.125207932915e-15 
   52       1.966812355849e-10       1.838314993604e-14      -1.238560517552e-14       1.147568453982e-16       4.857177523854e-11       7.037095875137e-12      -5.773901631913e-15 
   53       1.995888543680e-10       1.952337706473e-14      -4.229968546321e-14       1.192409433022e-16       4.660529771367e-11       6.781105251727e-12      -6.652785459226e-15 
   54       2.025212188025e-10       2.070437575551e-14      -7.395531523510e-14       1.238101711909e-16       4.474353197870e-11       6.538236128352e-12      -7.506587810691e-15 
   55       2.054729653928e-10       2.192631553917e-14      -1.074228266970e-13       1.284638914854e-16       4.297336191120e-11       6.306367109617e-12      -8.101373065554e-15 
   56       2.084461040424e-10       2.318902707801e-14      -1.427208527138e-13       1.332017423505e-16       4.129280152259e-11       6.085156606753e-12      -8.425758513321e-15 
   57       2.114441570539e-10       2.449217776835e-14      -1.798519597356e-13       1.380234269047e-16       3.970100089814e-11       5.874502221869e-12      -8.536405344662e-15 
   58       2.144699504081e-10       2.583533460247e-14      -2.188157941541e-13       1.429286353354e-16       3.819444587463e-11       5.673957425240e-12      -8.501207043679e-15 
   59       2.175255487732e-10       2.721796085675e-14      -2.596090300180e-13       1.479170450217e-16       3.676679317286e-11       5.482710121981e-12      -8.399821907045e-15 
   60       2.206121905125e-10       2.863941277991e-14      -3.022253167495e-13       1.529883206574e-16       3.540870553015e-11       5.299561218719e-12      -8.324205563153e-15 
   61       2.237306114115e-10       3.009904263236e-14      -3.466581423899e-13       1.581422038560e-16       3.411046124691e-11       5.123288344673e-12      -8.357565432427e-15 
   62       2.268822477975e-10       3.159654232350e-14      -3.929102926318e-13       1.633788051871e-16       3.287084027666e-11       4.953880905645e-12      -8.504499251276e-15 
   63       2.300681893737e-10       3.313167138160e-14      -4.409864318518e-13       1.686983782073e-16       3.168994923129e-11       4.791545478966e-12      -8.746048990009e-15 
   64       2.332887627167e-10       3.470415747045e-14      -4.908904143624e-13       1.741012386676e-16       3.056654765672e-11       4.636336091411e-12      -9.059746053418e-15 
   65       2.365434786186e-10       3.631369645186e-14      -5.426253246351e-13       1.795877674753e-16       2.949797119555e-11       4.488145006537e-12      -9.419459144437e-15 
   66       2.398309794296e-10       3.795995244838e-14      -5.961935175245e-13       1.851584136567e-16       2.848005474953e-11       4.346693512010e-12      -9.795242127792e-15 
   67       2.431489864004e-10       3.964255790589e-14      -6.515966584918e-13       1.908136973193e-16       2.750705564214e-11       4.211522706940e-12      -1.015318189366e-14 
   68       2.464952713331e-10       4.136098273552e-14      -7.088294173564e-13       1.965541599725e-16       2.657319585145e-11       4.082132140507e-12      -1.046232295691e-14 
   69       2.498709178642e-10       4.311411080939e-14      -7.678589758158e-13       2.023801971787e-16       2.567782334131e-11       3.958448941722e-12      -1.071741064173e-14 
   70       2.532776294434e-10       4.490057737000e-14      -8.286414207913e-13       2.082921971586e-16       2.482116332280e-11       3.840437634431e-12      -1.092050413433e-14 
   71       2.567167375075e-10       4.671888913137e-14      -8.911276036033e-13       2.142905920200e-16       2.400275692389e-11       3.727955362779e-12      -1.107433583070e-14 
   72       2.601891750199e-10       4.856742099330e-14      -9.552630178815e-13       2.203758593741e-16       2.322142576048e-11       3.620746459903e-12      -1.118234019094e-14 
   73       2.636954500105e-10       5.044441275567e-14      -1.020987677475e-12       2.265485239511e-16       2.247523650738e-11       3.518437016630e-12      -1.124868259361e-14 
   74       2.672356191145e-10       5.234796583269e-14      -1.088235994361e-12       2.328091592168e-16       2.176146546930e-11       3.420529450170e-12      -1.127828819008e-14 
   75       2.708092611124e-10       5.427603996716e-14      -1.156936656555e-12       2.391583889881e-16       2.107656315187e-11       3.326397072809e-12      -1.127687075883e-14 
   76       2.744158653503e-10       5.622666233487e-14      -1.227023651894e-12       2.455967503155e-16       2.041703961287e-11       3.235437353682e-12      -1.124975090172e-14 
   77       2.780561372658e-10       5.819860614293e-14      -1.298471930057e-12       2.521242496899e-16       1.978238522242e-11       3.147575975753e-12      -1.119799804863e-14 
   78       2.817308839634e-10       6.019083038251e-14      -1.371268052082e-12       2.587407284676e-16       1.917262062472e-11       3.062845255515e-12      -1.112163408269e-14 
   79       2.854406027915e-10       6.220227946892e-14      -1.445399726163e-12       2.654459932166e-16       1.858740692816e-11       2.981231462308e-12      -1.102078554959e-14 
   80       2.891854633889e-10       6.423188431109e-14      -1.520855914110e-12       2.722398144872e-16       1.802602915767e-11       2.902672641138e-12      -1.089568768640e-14 
   81       2.929652897319e-10       6.627856338107e-14      -1.597626937817e-12       2.791219255836e-16       1.748737970708e-11       2.827056435505e-12      -1.074668845038e-14 
   82       2.967795421814e-10       6.834122378353e-14      -1.675704585724e-12       2.860920213350e-16       1.696994179143e-11       2.754217910228e-12      -1.057425254780e-14 
   83       3.006272995295e-10       7.041876232528e-14      -1.755082219284e-12       2.931497568668e-16       1.647177289934e-11       2.683937374267e-12      -1.037896546273e-14 
   84       3.045076448336e-10       7.250995117622e-14      -1.835744520801e-12       3.002948084185e-16       1.599097924074e-11       2.615996783579e-12      -1.016197600204e-14 
   85       3.084209357356e-10       7.461307073084e-14      -1.917634550935e-12       3.075270700743e-16       1.552726570832e-11       2.550364462124e-12      -9.926399399627e-15 
   86       3.123677127979e-10       7.672621756080e-14      -2.000681399837e-12       3.148464875451e-16       1.508061372222e-11       2.487037154329e-12      -9.676155285256e-15 
   87       3.163483034382e-10       7.884741355470e-14      -2.084809993580e-12       3.222529988380e-16       1.465080490718e-11       2.425982992715e-12      -9.415561080446e-15 
   88       3.203628107627e-10       8.097460504792e-14      -2.169941026533e-12       3.297465340705e-16       1.423741279686e-11       2.367140305265e-12      -9.149343397296e-15 
   89       3.244111024000e-10       8.310566195245e-14      -2.255990893728e-12       3.373270152843e-16       1.383979453821e-11       2.310416422787e-12      -8.882649437320e-15 
   90       3.284927993336e-10       8.523837688679e-14      -2.342871623233e-12       3.449943562597e-16       1.345708259588e-11       2.255686486272e-12      -8.621058390275e-15 
   91       3.326072647358e-10       8.737046430580e-14      -2.430490808520e-12       3.527484623291e-16       1.308817645654e-11       2.202792254265e-12      -8.370592832988e-15 
   92       3.367535928006e-10       8.949955963057e-14      -2.518751540840e-12       3.605892301915e-16       1.273173433325e-11       2.151540910221e-12      -8.137730128192e-15 
   93       3.409308911543e-10       9.162333238838e-14      -2.607560129953e-12       3.685167089984e-16       1.238649278334e-11       2.101752402382e-12      -7.928065526779e-15 
   94       3.451392009292e-10       9.373984698769e-14      -2.696850741536e-12       3.765316117312e-16       1.205229856831e-11       2.053412198344e-12      -7.742046711905e-15 
   95       3.493786950666e-10       9.584725484742e-14      -2.786564357449e-12       3.846348807490e-16       1.172921737007e-11       2.006539406624e-12      -7.578615820261e-15 
   96       3.536493900284e-10       9.794368590710e-14      -2.876641356282e-12       3.928275353700e-16       1.141721596174e-11       1.961139771816e-12      -7.436493563771e-15 
   97       3.579511386602e-10       1.000272493217e-13      -2.967021552640e-12       4.011106738993e-16       1.111615841325e-11       1.917205148156e-12      -7.314172120579e-15 
   98       3.622836230547e-10       1.020960341566e-13      -3.057644236418e-12       4.094854756565e-16       1.082580229691e-11       1.874712973080e-12      -7.209908026030e-15 
   99       3.666463474147e-10       1.041481100822e-13      -3.148448212086e-12       4.179532030035e-16       1.054579489301e-11       1.833625740786e-12      -7.121715063655e-15 
  100       3.710386309160e-10       1.061815280692e-13      -3.239371837966e-12       4.265152033725e-16       1.027566939539e-11       1.793890475796e-12      -7.047357156157e-15 
  101       3.754596005712e-10       1.081943210829e-13      -3.330353065512e-12       4.351729112935e-16       1.001484111701e-11       1.755438206515e-12      -6.984341256395e-15 
  102       3.799081840923e-10       1.101845047785e-13      -3.421329478591e-12       4.439278504221e-16       9.762603695536e-12       1.718183438793e-12      -6.929910238367e-15 
  103       3.843831027541e-10       1.121500781960e-13      -3.512238332762e-12       4.527816355676e-16       9.518125298942e-12       1.682023629486e-12      -6.881035788195e-15 
  104       3.888831233961e-10       1.140890506765e-13      -3.603014826640e-12       4.617357531965e-16       9.280637799309e-12       1.646863037352e-12      -6.834955194594e-15 
  105       3.934078685698e-10       1.159995252578e-13      -3.693586565436e-12       4.707908648095e-16       9.050041570595e-12       1.612689078980e-12      -6.790879615148e-15 
  106       3.979571030344e-10       1.178796278924e-13      -3.783878419269e-12       4.799474128033e-16       8.826375696689e-12       1.579505354022e-12      -6.748504392936e-15 
  107       4.025304801543e-10       1.197274832025e-13      -3.873814243911e-12       4.892058331892e-16       8.609630645106e-12       1.547307933490e-12      -6.707484645314e-15 
