# total [l(l+1)/2pi] C_l's (units: [microK]^2)
# for l=2 to 3000, i.e. number of multipoles equal to 2999
#
# -> if you don't want to see such a header, set 'headers' to 'no' in input file
# -> for CMB lensing (d), these are C_l^dd for the deflection field.
#    Remember the conversion factors:
#    C_l^dd (deflection) = l(l+1) C_l^phi-phi
#    C_l^gg (shear/convergence) = 1/4 (l(l+1))^2 C_l^phi-phi
#
# 1:l     2:TT                     3:EE                     4:BB                     5:TE                     6:dd                     7:dT                     8:dE                 
    2       8.034244638267e+02       2.796881455286e-02       0.000000000000e+00       3.473405816235e+00       9.534352344799e-08      -1.635199573425e-03      -1.254881556842e-05 
    3       7.750759783519e+02       5.168065835011e-02       0.000000000000e+00       4.018444304078e+00       1.171101687218e-07      -1.223852102603e-03      -1.586234034693e-05 
    4       7.589656847910e+02       6.774380787544e-02       0.000000000000e+00       4.130535534933e+00       1.379613438770e-07      -9.855119929479e-04      -1.721654670391e-05 
    5       7.474935086779e+02       7.160038340314e-02       0.000000000000e+00       3.956650153194e+00       1.576292168438e-07      -8.305530596006e-04      -1.693572004321e-05 
    6       7.397818982439e+02       6.435311676699e-02       0.000000000000e+00       3.607354763328e+00       1.759442654594e-07      -7.200488106844e-04      -1.532465168105e-05 
    7       7.351246145543e+02       5.055689136455e-02       0.000000000000e+00       3.178615719334e+00       1.930659670753e-07      -6.379091341604e-04      -1.277523309380e-05 
    8       7.339669994017e+02       3.534646555801e-02       0.000000000000e+00       2.734754447062e+00       2.092757465830e-07      -5.752092737832e-04      -9.688981801486e-06 
    9       7.353907000586e+02       2.252719589179e-02       0.000000000000e+00       2.316710154561e+00       2.243295018985e-07      -5.242495352303e-04      -6.449982499992e-06 
   10       7.390430501851e+02       1.382844381652e-02       0.000000000000e+00       1.950737849054e+00       2.378937165604e-07      -4.805197627175e-04      -3.398940683167e-06 
   11       7.445582534706e+02       9.140116826021e-03       0.000000000000e+00       1.652048214151e+00       2.188531933951e-07      -3.744005203928e-04      -8.047874688405e-07 
   12       7.515061943644e+02       7.283847220871e-03       0.000000000000e+00       1.427192198904e+00       2.281815169649e-07      -3.469441969558e-04       1.127963337674e-06 
   13       7.596781946553e+02       6.850788052708e-03       0.000000000000e+00       1.276063991427e+00       2.368702442271e-07      -3.232068758998e-04       2.337258353916e-06 
   14       7.685193940255e+02       6.784349232250e-03       0.000000000000e+00       1.193699268376e+00       2.449855883847e-07      -3.015084274204e-04       2.826505621534e-06 
   15       7.784429431792e+02       6.594080616162e-03       0.000000000000e+00       1.171090587935e+00       2.525828778914e-07      -2.798071890497e-04       2.677935244501e-06 
   16       7.886467393079e+02       6.264783589587e-03       0.000000000000e+00       1.196373069734e+00       2.597086064780e-07      -2.551543615235e-04       2.030964331822e-06 
   17       7.993580154132e+02       6.016106772499e-03       0.000000000000e+00       1.257007338837e+00       2.664018936937e-07      -2.266922283671e-04       1.058449641504e-06 
   18       8.102887404124e+02       6.077320894242e-03       0.000000000000e+00       1.340202838192e+00       2.725830625067e-07      -2.075348812828e-04      -8.003315963369e-08 
   19       8.215445814071e+02       6.503220930096e-03       0.000000000000e+00       1.436881441163e+00       2.786312323301e-07      -1.943461550716e-04      -1.225728836414e-06 
   20       8.330909092089e+02       7.257269194800e-03       0.000000000000e+00       1.536978906451e+00       2.842207829766e-07      -1.741646813044e-04      -2.195034905619e-06 
   21       8.449183065869e+02       8.220845936987e-03       0.000000000000e+00       1.634911538324e+00       2.895097549287e-07      -1.517277781678e-04      -2.904757110903e-06 
   22       8.568236760408e+02       9.238765913548e-03       0.000000000000e+00       1.726415074371e+00       2.944662791493e-07      -1.385387117206e-04      -3.329429144393e-06 
   23       8.688229418922e+02       1.027957466436e-02       0.000000000000e+00       1.810185644631e+00       2.992223135353e-07      -1.318885166214e-04      -3.449093761852e-06 
   24       8.808655641126e+02       1.136573339063e-02       0.000000000000e+00       1.886192506515e+00       3.036709560932e-07      -1.228140553712e-04      -3.274050809429e-06 
   25       8.929713513902e+02       1.258032661990e-02       0.000000000000e+00       1.955234648123e+00       3.079148736354e-07      -1.103258603904e-04      -2.860169232018e-06 
   26       9.050907110072e+02       1.402832111943e-02       0.000000000000e+00       2.018798394883e+00       3.119124623433e-07      -9.657845316357e-05      -2.307328386243e-06 
   27       9.172615735674e+02       1.576043135357e-02       0.000000000000e+00       2.078913628195e+00       3.157139808774e-07      -8.355985701728e-05      -1.709590948221e-06 
   28       9.294795840009e+02       1.780352571524e-02       0.000000000000e+00       2.137813813458e+00       3.192441326399e-07      -7.309281437470e-05      -1.169214004136e-06 
   29       9.417717323738e+02       2.014787420693e-02       0.000000000000e+00       2.196329284863e+00       3.226453826237e-07      -6.502569686932e-05      -7.409163889279e-07 
   30       9.540849419719e+02       2.276262103946e-02       0.000000000000e+00       2.254866781712e+00       3.259557617834e-07      -5.802100664912e-05      -4.646341312980e-07 
   31       9.663018991300e+02       2.561318528650e-02       0.000000000000e+00       2.313559930533e+00       3.290139104344e-07      -5.037257711469e-05      -3.727096420108e-07 
   32       9.784776341250e+02       2.870132426820e-02       0.000000000000e+00       2.371378683604e+00       3.319081977787e-07      -4.186875444784e-05      -4.598798979987e-07 
   33       9.906748486140e+02       3.203964801218e-02       0.000000000000e+00       2.426630153991e+00       3.346935816897e-07      -3.282435096029e-05      -6.932163469028e-07 
   34       1.002908318468e+03       3.563876208263e-02       0.000000000000e+00       2.477311994215e+00       3.372950064037e-07      -2.364459510113e-05      -1.022362447365e-06 
   35       1.015192681749e+03       3.949847652118e-02       0.000000000000e+00       2.521677427000e+00       3.397757217136e-07      -1.481894201744e-05      -1.405476358650e-06 
   36       1.027499362092e+03       4.361324513332e-02       0.000000000000e+00       2.557822625741e+00       3.421479064998e-07      -6.939634658775e-06      -1.791259861745e-06 
   37       1.039770754002e+03       4.797711807935e-02       0.000000000000e+00       2.583818237492e+00       3.443306173990e-07      -5.461573923129e-07      -2.121247369716e-06 
   38       1.052035037693e+03       5.259356457543e-02       0.000000000000e+00       2.598748577694e+00       3.464019045223e-07       4.484441981009e-06      -2.369637624354e-06 
   39       1.064321140179e+03       5.746878443376e-02       0.000000000000e+00       2.602006186114e+00       3.484343364851e-07       8.632837382624e-06      -2.520469358378e-06 
   40       1.076623117681e+03       6.260910260489e-02       0.000000000000e+00       2.593017809988e+00       3.503995216942e-07       1.262782782501e-05      -2.558031572644e-06 
   41       1.088916541010e+03       6.802259788321e-02       0.000000000000e+00       2.571403747911e+00       3.521995221558e-07       1.724456761138e-05      -2.473069435043e-06 
   42       1.101223240678e+03       7.372457841349e-02       0.000000000000e+00       2.537510106894e+00       3.538808512022e-07       2.248775671318e-05      -2.284392740935e-06 
   43       1.113561215281e+03       7.973392244666e-02       0.000000000000e+00       2.492055526562e+00       3.554956399246e-07       2.807596852482e-05      -2.028109815739e-06 
   44       1.125923865895e+03       8.607175184969e-02       0.000000000000e+00       2.436004043111e+00       3.570274052194e-07       3.363666156492e-05      -1.754142525899e-06 
   45       1.138293452953e+03       9.275757074748e-02       0.000000000000e+00       2.370314218861e+00       3.584168564464e-07       3.878469194703e-05      -1.516360610724e-06 
   46       1.150691991663e+03       9.979599881026e-02       0.000000000000e+00       2.295063880558e+00       3.597149897343e-07       4.342680203257e-05      -1.333400148488e-06 
   47       1.163141438050e+03       1.071862926580e-01       0.000000000000e+00       2.210087687497e+00       3.609814439301e-07       4.757372542888e-05      -1.213412923033e-06 
   48       1.175647646475e+03       1.149258953660e-01       0.000000000000e+00       2.115218244498e+00       3.622328061804e-07       5.126633440433e-05      -1.164029497543e-06 
   49       1.188198854162e+03       1.230103364774e-01       0.000000000000e+00       2.010284936738e+00       3.634292953242e-07       5.457991958801e-05      -1.192197313610e-06 
   50       1.200776832695e+03       1.314347914031e-01       0.000000000000e+00       1.895032841354e+00       3.645004309420e-07       5.761384382981e-05      -1.300289100349e-06 
   51       1.213397426832e+03       1.401994906031e-01       0.000000000000e+00       1.768856217177e+00       3.654764993727e-07       6.044455596756e-05      -1.472957352231e-06 
   52       1.226078399916e+03       1.493056058313e-01       0.000000000000e+00       1.630990659732e+00       3.664008131498e-07       6.316141454871e-05      -1.684709586809e-06 
   53       1.238826831088e+03       1.587536976951e-01       0.000000000000e+00       1.480581892391e+00       3.672880496805e-07       6.588272869689e-05      -1.902459814582e-06 
   54       1.251638195919e+03       1.685436937560e-01       0.000000000000e+00       1.316680840110e+00       3.681162375798e-07       6.875878314497e-05      -2.084754332732e-06 
   55       1.264503956423e+03       1.786753605889e-01       0.000000000000e+00       1.138440728423e+00       3.688451942466e-07       7.192665992477e-05      -2.191648041766e-06 
   56       1.277438645351e+03       1.891499074532e-01       0.000000000000e+00       9.457770039362e-01       3.695047857488e-07       7.534725917561e-05      -2.220614350648e-06 
   57       1.290457899858e+03       1.999687426503e-01       0.000000000000e+00       7.388627235131e-01       3.701338682560e-07       7.891382125876e-05      -2.182441645181e-06 
   58       1.303569966557e+03       2.111330118735e-01       0.000000000000e+00       5.179437730582e-01       3.707521783651e-07       8.249285499287e-05      -2.092066147577e-06 
   59       1.316775113673e+03       2.226435955543e-01       0.000000000000e+00       2.833418123660e-01       3.713553099003e-07       8.592169734821e-05      -1.968986668023e-06 
   60       1.330065043208e+03       2.345011062088e-01       0.000000000000e+00       3.545721997203e-02       3.719092270011e-07       8.900598758566e-05      -1.837694458449e-06 
   61       1.343430017321e+03       2.467055047771e-01       0.000000000000e+00      -2.253131793803e-01       3.723683903037e-07       9.156826447001e-05      -1.722676880402e-06 
   62       1.356883436566e+03       2.592548550159e-01       0.000000000000e+00      -4.988511741367e-01       3.727544192085e-07       9.361920709748e-05      -1.630395311188e-06 
   63       1.370441760480e+03       2.721462835343e-01       0.000000000000e+00      -7.850989018579e-01       3.731014497522e-07       9.523900155976e-05      -1.562070292536e-06 
   64       1.384116943894e+03       2.853763216775e-01       0.000000000000e+00      -1.083978843701e+00       3.734324123382e-07       9.653313291940e-05      -1.518564461741e-06 
   65       1.397916093856e+03       2.989408907840e-01       0.000000000000e+00      -1.395393583452e+00       3.737561833276e-07       9.763462321385e-05      -1.500336266922e-06 
   66       1.411841126560e+03       3.128352874425e-01       0.000000000000e+00      -1.719225566559e+00       3.740644943056e-07       9.870634242773e-05      -1.507391940218e-06 
   67       1.425888424272e+03       3.270541687495e-01       0.000000000000e+00      -2.055336859166e+00       3.743285912485e-07       9.994339243315e-05      -1.539235728917e-06 
   68       1.440053636627e+03       3.415916266232e-01       0.000000000000e+00      -2.403609900911e+00       3.745135150469e-07       1.015247447882e-04      -1.594593989679e-06 
   69       1.454347981114e+03       3.564414611880e-01       0.000000000000e+00      -2.764079890857e+00       3.746364123250e-07       1.034452458829e-04      -1.670608973302e-06 
   70       1.468784644361e+03       3.715969365549e-01       0.000000000000e+00      -3.136828916798e+00       3.747249716209e-07       1.056372788767e-04      -1.763309542283e-06 
   71       1.483373722292e+03       3.870506844235e-01       0.000000000000e+00      -3.521948127944e+00       3.748000301772e-07       1.080159226711e-04      -1.867742020668e-06 
   72       1.498122008617e+03       4.027946916169e-01       0.000000000000e+00      -3.919538542380e+00       3.748739385566e-07       1.104775737280e-04      -1.977893492029e-06 
   73       1.513032783329e+03       4.188202876164e-01       0.000000000000e+00      -4.329711854537e+00       3.749487986826e-07       1.128985270084e-04      -2.086612852675e-06 
   74       1.528105601203e+03       4.351181320963e-01       0.000000000000e+00      -4.752591242661e+00       3.750145716252e-07       1.151335160336e-04      -2.185529620111e-06 
   75       1.543336080285e+03       4.516782024589e-01       0.000000000000e+00      -5.188312176273e+00       3.750470514525e-07       1.170142120656e-04      -2.264970496732e-06 
   76       1.558719398891e+03       4.684905570005e-01       0.000000000000e+00      -5.636956854703e+00       3.750186695463e-07       1.183913092862e-04      -2.316469698402e-06 
   77       1.574261990332e+03       4.855478126328e-01       0.000000000000e+00      -6.098341935325e+00       3.749406258729e-07       1.192776900024e-04      -2.341294220021e-06 
   78       1.589971606424e+03       5.028430984386e-01       0.000000000000e+00      -6.572193383701e+00       3.748319527928e-07       1.197414116056e-04      -2.344082476224e-06 
   79       1.605853664910e+03       5.203693235072e-01       0.000000000000e+00      -7.058208863990e+00       3.747069324136e-07       1.198665025770e-04      -2.330518095140e-06 
   80       1.621911114006e+03       5.381191803741e-01       0.000000000000e+00      -7.556057185457e+00       3.745741119124e-07       1.197540814768e-04      -2.307403312037e-06 
   81       1.638144296938e+03       5.560851484609e-01       0.000000000000e+00      -8.065377749001e+00       3.744352509111e-07       1.195235052207e-04      -2.282734293451e-06 
   82       1.654550816484e+03       5.742594975150e-01       0.000000000000e+00      -8.585779993667e+00       3.742841991331e-07       1.193135466454e-04      -2.265778391814e-06 
   83       1.671125399516e+03       5.926342910491e-01       0.000000000000e+00      -9.116842843162e+00       3.741057025701e-07       1.192836013594e-04      -2.267153330553e-06 
   84       1.687862802818e+03       6.112003143119e-01       0.000000000000e+00      -9.658145876866e+00       3.738828139622e-07       1.195781282532e-04      -2.296276514775e-06 
   85       1.704767380751e+03       6.299436464677e-01       0.000000000000e+00      -1.020936999255e+01       3.736249284932e-07       1.202069526657e-04      -2.352796260064e-06 
   86       1.721844862720e+03       6.488485238211e-01       0.000000000000e+00      -1.077021249421e+01       3.733465892222e-07       1.211375963415e-04      -2.433188058472e-06 
   87       1.739099369821e+03       6.678983503419e-01       0.000000000000e+00      -1.134035683130e+01       3.730590218930e-07       1.223289464317e-04      -2.533154959460e-06 
   88       1.756533330496e+03       6.870756830300e-01       0.000000000000e+00      -1.191947257848e+01       3.727695167602e-07       1.237306656855e-04      -2.647577427497e-06 
   89       1.774147396186e+03       7.063622172796e-01       0.000000000000e+00      -1.250721541526e+01       3.724807718045e-07       1.252825880173e-04      -2.770461989362e-06 
   90       1.791940356986e+03       7.257387722444e-01       0.000000000000e+00      -1.310322710573e+01       3.721901964272e-07       1.269140994491e-04      -2.894888671137e-06 
   91       1.809909057303e+03       7.451852762015e-01       0.000000000000e+00      -1.370713547829e+01       3.718891747084e-07       1.285435044290e-04      -3.012957224909e-06 
   92       1.828048311508e+03       7.646807519166e-01       0.000000000000e+00      -1.431855440531e+01       3.715622873161e-07       1.300773775249e-04      -3.115732145164e-06 
   93       1.846353149295e+03       7.842050144715e-01       0.000000000000e+00      -1.493710310795e+01       3.711937725894e-07       1.314299156554e-04      -3.195117495331e-06 
   94       1.864826121253e+03       8.037440886352e-01       0.000000000000e+00      -1.556246743608e+01       3.707910396948e-07       1.325874988930e-04      -3.250093562465e-06 
   95       1.883470941218e+03       8.232855829976e-01       0.000000000000e+00      -1.619434781020e+01       3.703666240532e-07       1.335574152080e-04      -3.281778094432e-06 
   96       1.902290202812e+03       8.428170588568e-01       0.000000000000e+00      -1.683244095925e+01       3.699311822791e-07       1.343492375351e-04      -3.291637964658e-06 
   97       1.921285327073e+03       8.623260390906e-01       0.000000000000e+00      -1.747644016561e+01       3.694931456629e-07       1.349749618531e-04      -3.281511060545e-06 
   98       1.940456510091e+03       8.818000170271e-01       0.000000000000e+00      -1.812603551002e+01       3.690583536463e-07       1.354491482724e-04      -3.253628662585e-06 
   99       1.959802670644e+03       9.012264653171e-01       0.000000000000e+00      -1.878091411659e+01       3.686296668610e-07       1.357890651281e-04      -3.210638314169e-06 
  100       1.979321397830e+03       9.205928448046e-01       0.000000000000e+00      -1.944076039780e+01       3.682065592945e-07       1.360148360805e-04      -3.155627182079e-06 
  101       1.999008898703e+03       9.398866133982e-01       0.000000000000e+00      -2.010525629940e+01       3.677846891527e-07       1.361495902213e-04      -3.092145907691e-06 
  102       2.018859945907e+03       9.590952349429e-01       0.000000000000e+00      -2.077408154546e+01       3.673554479845e-07       1.362196151878e-04      -3.024232948859e-06 
  103       2.038867825309e+03       9.782061880909e-01       0.000000000000e+00      -2.144691388332e+01       3.669054876363e-07       1.362545132818e-04      -2.956439412499e-06 
  104       2.059026021321e+03       9.972064284300e-01       0.000000000000e+00      -2.212340604314e+01       3.664217615892e-07       1.362820675175e-04      -2.892953248035e-06 
  105       2.079333644907e+03       1.016080673011e+00       0.000000000000e+00      -2.280311254435e+01       3.659093373002e-07       1.363112971817e-04      -2.834712722254e-06 
  106       2.099790644613e+03       1.034812899543e+00       0.000000000000e+00      -2.348555341250e+01       3.653774206607e-07       1.363462751025e-04      -2.781756955114e-06 
  107       2.120396101484e+03       1.053386875275e+00       0.000000000000e+00      -2.417023657096e+01       3.648340440326e-07       1.363911128998e-04      -2.734072811690e-06 
