# Matter power spectrum P(k) at redshift z=0
# for k=1.92995e-05 to 1.39423 h/Mpc,
# number of wavenumbers equal to 611
#    1:k (h/Mpc)              2:P (Mpc/h)^3        
       1.929954219578e-05       8.344250739820e+00 
       4.078154995199e-05       1.718455760134e+01 
       6.248679355291e-05       2.595047356976e+01 
       8.457846692272e-05       3.476881809969e+01 
       1.072274911098e-04       4.373450916050e+01 
       1.306167186456e-04       5.293458725608e+01 
       1.549454934955e-04       6.245655880589e+01 
       1.804347081604e-04       7.239285606743e+01 
       2.073324911114e-04       8.284438765209e+01 
       2.359206365824e-04       9.392361068953e+01 
       2.665218422372e-04       1.057575933126e+02 
       2.995077289313e-04       1.184911098411e+02 
       3.353074521080e-04       1.322897019420e+02 
       3.744164373515e-04       1.473423701866e+02 
       4.174043370136e-04       1.638635609827e+02 
       4.649206704657e-04       1.820935435345e+02 
       5.176957771329e-04       2.022962362078e+02 
       5.765337842079e-04       2.247533621423e+02 
       6.422935780666e-04       2.497535888393e+02 
       7.158538705499e-04       2.775764357912e+02 
       7.980602201514e-04       3.084714009347e+02 
       8.896560326820e-04       3.426351666336e+02 
       9.912059129764e-04       3.801904522318e+02 
       1.103026218699e-03       4.211716799526e+02 
       1.225140511300e-03       4.655196074533e+02 
       1.357273458348e-03       5.130873276465e+02 
       1.498885902554e-03       5.636548637298e+02 
       1.649241250678e-03       6.169497822408e+02 
       1.807485507441e-03       6.726701116966e+02 
       1.972723294077e-03       7.305053444187e+02 
       2.144078147874e-03       7.900726882282e+02 
       2.320732928932e-03       8.511550926421e+02 
       2.501951856215e-03       9.135012966406e+02 
       2.687088478576e-03       9.768839566136e+02 
       2.875584350002e-03       1.041105508409e+03 
       3.066962407994e-03       1.105995591087e+03 
       3.260817913113e-03       1.171408991297e+03 
       3.456808762134e-03       1.237222248594e+03 
       3.654646200430e-03       1.303330505039e+03 
       3.854086434129e-03       1.369644884487e+03 
       4.054923323103e-03       1.436090220454e+03 
       4.256982157822e-03       1.502602459312e+03 
       4.460114434486e-03       1.569127262440e+03 
       4.664193506880e-03       1.635618042601e+03 
       4.869110986320e-03       1.702035285944e+03 
       5.074773768550e-03       1.768344753278e+03 
       5.281101580166e-03       1.834516999109e+03 
       5.488024952594e-03       1.900526870606e+03 
       5.695483546593e-03       1.966352142931e+03 
       5.903424763615e-03       2.031973908536e+03 
       6.111802591881e-03       2.097375150239e+03 
       6.320576644656e-03       2.162541528232e+03 
       6.529711356168e-03       2.227460272379e+03 
       6.739175307098e-03       2.292119809504e+03 
       6.948940656872e-03       2.356510610333e+03 
       7.158982664183e-03       2.420623570988e+03 
       7.369279280681e-03       2.484450890851e+03 
       7.579810805486e-03       2.547985861118e+03 
       7.790559590451e-03       2.611222375183e+03 
       8.001509787895e-03       2.674154510472e+03 
       8.212647134000e-03       2.736777834152e+03 
       8.423958762249e-03       2.799087608233e+03 
       8.635433042251e-03       2.861079756126e+03 
       8.847059440092e-03       2.922751279317e+03 
       9.058828396983e-03       2.984101916231e+03 
       9.270731223520e-03       3.045130683114e+03 
       9.482760007306e-03       3.105818524833e+03 
       9.694907532021e-03       3.166177032216e+03 
       9.907167206356e-03       3.226201395710e+03 
       1.011953300145e-02       3.285891945882e+03 
       1.033199939570e-02       3.345246645070e+03 
       1.054456132589e-02       3.404263785734e+03 
       1.075721414400e-02       3.462940870085e+03 
       1.096995357867e-02       3.521272555619e+03 
       1.118277570107e-02       3.579260251995e+03 
       1.139567689432e-02       3.636928965342e+03 
       1.160865382628e-02       3.694233209782e+03 
       1.182170342512e-02       3.751171598175e+03 
       1.203482285740e-02       3.807786699807e+03 
       1.224800950848e-02       3.864059481508e+03 
       1.246126096474e-02       3.919991908072e+03 
       1.267457499770e-02       3.975563366260e+03 
       1.288794954960e-02       4.030801004073e+03 
       1.310138272036e-02       4.085687763304e+03 
       1.331487275585e-02       4.140226090117e+03 
       1.352841803717e-02       4.194421201225e+03 
       1.374201707097e-02       4.248268063801e+03 
       1.395566848065e-02       4.301765199904e+03 
       1.416937099831e-02       4.354924076904e+03 
       1.438312345749e-02       4.407730235279e+03 
       1.459692478647e-02       4.460185700073e+03 
       1.481077400221e-02       4.512292052594e+03 
       1.502467020478e-02       4.564083390294e+03 
       1.523861257230e-02       4.615509375870e+03 
       1.545260035627e-02       4.666590080249e+03 
       1.566663287729e-02       4.717329797951e+03 
       1.588070952120e-02       4.767724530900e+03 
       1.609482973545e-02       4.817770046080e+03 
       1.630899302583e-02       4.867474182729e+03 
       1.652319895346e-02       4.916840359868e+03 
       1.673744713197e-02       4.965859893885e+03 
       1.695173722499e-02       5.014526596707e+03 
       1.716606894378e-02       5.062869469384e+03 
       1.738044204508e-02       5.110870640078e+03 
       1.759485632913e-02       5.158513952708e+03 
       1.780931163782e-02       5.205832437252e+03 
       1.802380785304e-02       5.252807477146e+03 
       1.823834489511e-02       5.299448133443e+03 
       1.845292272141e-02       5.345749962656e+03 
       1.866754132500e-02       5.391710935259e+03 
       1.888220073348e-02       5.437336147365e+03 
       1.909690100791e-02       5.482628256016e+03 
       1.931164224173e-02       5.527581712995e+03 
       1.952642455991e-02       5.572204576890e+03 
       1.974124811809e-02       5.616492116725e+03 
       1.995611310181e-02       5.660450698072e+03 
       2.017101972580e-02       5.704067037190e+03 
       2.038596823340e-02       5.747361306616e+03 
       2.060095889594e-02       5.790315059513e+03 
       2.081599201223e-02       5.832943956169e+03 
       2.103106790814e-02       5.875251020473e+03 
       2.124618693615e-02       5.917232762049e+03 
       2.146134947502e-02       5.958876157132e+03 
       2.167655592944e-02       6.000206377483e+03 
       2.189180672979e-02       6.041202621558e+03 
       2.210710233189e-02       6.081877174591e+03 
       2.232244321680e-02       6.122227473343e+03 
       2.253782989065e-02       6.162253655578e+03 
       2.275326288456e-02       6.201966263778e+03 
       2.296874275448e-02       6.241347034060e+03 
       2.318427008120e-02       6.280411589432e+03 
       2.339984547025e-02       6.319166520581e+03 
       2.361546955197e-02       6.357591320141e+03 
       2.383114298147e-02       6.395707993462e+03 
       2.404686643871e-02       6.433507781104e+03 
       2.426264062859e-02       6.470991600261e+03 
       2.447846628104e-02       6.508159572972e+03 
       2.469434415116e-02       6.545014864149e+03 
       2.491027501934e-02       6.581563345346e+03 
       2.512625969147e-02       6.617795990361e+03 
       2.534229899912e-02       6.653728576572e+03 
       2.555839379977e-02       6.689345522772e+03 
       2.577454497704e-02       6.724659244415e+03 
       2.599075344095e-02       6.759663458329e+03 
       2.620702012822e-02       6.794366136793e+03 
       2.642334600256e-02       6.828767148459e+03 
       2.663973205498e-02       6.862859785083e+03 
       2.685617930417e-02       6.896654526398e+03 
       2.707268879685e-02       6.930150278644e+03 
       2.728926160814e-02       6.963350723059e+03 
       2.750589884197e-02       6.996237727774e+03 
       2.772260163152e-02       7.028845668438e+03 
       2.793937113964e-02       7.061146560191e+03 
       2.815620855934e-02       7.093175562473e+03 
       2.837311511426e-02       7.124876556331e+03 
       2.859009205917e-02       7.156303830344e+03 
       2.880714068050e-02       7.187436392708e+03 
       2.902426229689e-02       7.218279260079e+03 
       2.924145825974e-02       7.248833548370e+03 
       2.945872995382e-02       7.279104727110e+03 
       2.967607879785e-02       7.309090604520e+03 
       2.989350624514e-02       7.338793033403e+03 
       3.011101378426e-02       7.368222423140e+03 
       3.032860293967e-02       7.397339149268e+03 
       3.054627527245e-02       7.426190049997e+03 
       3.076403238101e-02       7.454760055284e+03 
       3.098187590181e-02       7.483061761556e+03 
       3.119980751013e-02       7.511082490575e+03 
       3.141782892089e-02       7.538832320158e+03 
       3.163594188942e-02       7.566299256878e+03 
       3.185414821231e-02       7.593495767322e+03 
       3.207244972828e-02       7.620422726733e+03 
       3.229084831906e-02       7.647070717994e+03 
       3.250934591030e-02       7.673460540202e+03 
       3.272794447254e-02       7.699593546136e+03 
       3.294664602213e-02       7.725426178101e+03 
       3.316545262229e-02       7.751018561647e+03 
       3.338436638408e-02       7.776341347443e+03 
       3.360338946750e-02       7.801399476113e+03 
       3.382252408257e-02       7.826209971345e+03 
       3.404177249042e-02       7.850742106808e+03 
       3.426113700450e-02       7.875029991920e+03 
       3.448061999172e-02       7.899056592190e+03 
       3.470022387370e-02       7.922826703169e+03 
       3.491995112800e-02       7.946333385104e+03 
       3.513980428947e-02       7.969591919614e+03 
       3.535978595151e-02       7.992619044654e+03 
       3.557989876749e-02       8.015372690930e+03 
       3.580014545214e-02       8.037890811904e+03 
       3.602052878304e-02       8.060145357234e+03 
       3.624105160206e-02       8.082173192195e+03 
       3.646171681692e-02       8.103953145521e+03 
       3.668252740280e-02       8.125496264646e+03 
       3.690348640394e-02       8.146775573703e+03 
       3.712459693534e-02       8.167831304472e+03 
       3.734586218446e-02       8.188641010228e+03 
       3.756728541306e-02       8.209235068051e+03 
       3.778886995894e-02       8.229562635366e+03 
       3.801061923795e-02       8.249680458526e+03 
       3.823253674581e-02       8.269533975771e+03 
       3.845462606021e-02       8.289183348720e+03 
       3.867689084285e-02       8.308589251572e+03 
       3.889933484152e-02       8.327780553835e+03 
       3.912196189236e-02       8.346727751292e+03 
       3.934477592211e-02       8.365462951715e+03 
       3.956778095039e-02       8.383971189642e+03 
       3.979098109217e-02       8.402248118872e+03 
       4.001438056020e-02       8.420309763863e+03 
       4.023798366759e-02       8.438155319074e+03 
       4.046179483044e-02       8.455780604660e+03 
       4.068581857057e-02       8.473173399405e+03 
       4.091005951830e-02       8.490366589244e+03 
       4.113452241538e-02       8.507341186426e+03 
       4.135921211795e-02       8.524105638065e+03 
       4.158413359967e-02       8.540646988936e+03 
       4.180929195484e-02       8.556988087449e+03 
       4.203469240177e-02       8.573122607742e+03 
       4.226034028610e-02       8.589042123697e+03 
       4.248624108440e-02       8.604763232997e+03 
       4.271240040772e-02       8.620276763688e+03 
       4.293882400540e-02       8.635580221960e+03 
       4.316551776891e-02       8.650684849918e+03 
       4.339248773590e-02       8.665601716710e+03 
       4.361974009430e-02       8.680307582929e+03 
       4.384728118665e-02       8.694819945933e+03 
       4.407511751455e-02       8.709135818422e+03 
       4.430325574320e-02       8.723257238610e+03 
       4.453170270622e-02       8.737182410876e+03 
       4.476046541051e-02       8.750914926635e+03 
       4.498955104144e-02       8.764458806511e+03 
       4.521896696803e-02       8.777816071942e+03 
       4.544872074851e-02       8.790982676472e+03 
       4.567882013596e-02       8.803971008567e+03 
       4.590927308417e-02       8.816767119114e+03 
       4.614008775380e-02       8.829395877449e+03 
       4.637127251864e-02       8.841793911314e+03 
       4.660283597222e-02       8.854047204112e+03 
       4.683478693462e-02       8.866118071069e+03 
       4.706713445952e-02       8.878009300441e+03 
       4.729988784154e-02       8.889724044523e+03 
       4.753305662391e-02       8.901255804923e+03 
       4.776665060634e-02       8.912624510197e+03 
       4.800067985331e-02       8.923811694440e+03 
       4.823515470258e-02       8.934838076301e+03 
       4.847008577411e-02       8.945678169337e+03 
       4.870548397936e-02       8.956356525628e+03 
       4.894136053085e-02       8.966869853520e+03 
       4.917772695229e-02       8.977214965985e+03 
       4.941459508891e-02       8.987394765992e+03 
       4.965197711845e-02       8.997410097269e+03 
       4.988988556240e-02       9.007259411397e+03 
       5.012833329790e-02       9.016954675223e+03 
       5.036733356998e-02       9.026478550290e+03 
       5.060690000445e-02       9.035844630097e+03 
       5.084704662131e-02       9.045055106651e+03 
       5.108778784873e-02       9.054117895056e+03 
       5.132913853764e-02       9.063011250181e+03 
       5.157111397702e-02       9.071768085558e+03 
       5.181372990986e-02       9.080360342849e+03 
       5.205700254976e-02       9.088800630115e+03 
       5.230094859845e-02       9.097091730998e+03 
       5.254558526397e-02       9.105225252793e+03 
       5.279093027980e-02       9.113223105941e+03 
       5.303700192480e-02       9.121071884556e+03 
       5.328381904420e-02       9.128767510520e+03 
       5.353140107152e-02       9.136335247872e+03 
       5.377976805155e-02       9.143731893961e+03 
       5.402894066455e-02       9.151002214511e+03 
       5.427894025150e-02       9.158137371841e+03 
       5.452978884074e-02       9.165098330846e+03 
       5.478150917589e-02       9.171948256844e+03 
       5.503412474516e-02       9.178650128670e+03 
       5.528765981226e-02       9.185222581913e+03 
       5.554213944884e-02       9.191651355735e+03 
       5.579758956866e-02       9.197943310964e+03 
       5.605403696354e-02       9.204095794150e+03 
       5.631150934134e-02       9.210127396857e+03 
       5.657003536585e-02       9.216009510234e+03 
       5.682964469896e-02       9.221774796540e+03 
       5.709036804516e-02       9.227402863453e+03 
       5.735223719852e-02       9.232899356924e+03 
       5.761528509229e-02       9.238268914801e+03 
       5.787954585140e-02       9.243485862154e+03 
       5.814505484797e-02       9.248619456945e+03 
       5.841184876004e-02       9.253609238854e+03 
       5.867996563388e-02       9.258461290513e+03 
       5.894944494989e-02       9.263171293108e+03 
       5.922032769260e-02       9.267784421261e+03 
       5.949265642496e-02       9.272254355849e+03 
       5.976647536718e-02       9.276620639441e+03 
       6.004183048057e-02       9.280843589961e+03 
       6.031876955673e-02       9.284961696792e+03 
       6.059734231247e-02       9.288925949637e+03 
       6.087760049089e-02       9.292798847512e+03 
       6.115959796918e-02       9.296541693829e+03 
       6.144339087365e-02       9.300164772942e+03 
       6.172903770250e-02       9.303677628799e+03 
       6.201659945712e-02       9.307048127658e+03 
       6.230613978240e-02       9.310330506905e+03 
       6.259772511710e-02       9.313453467203e+03 
       6.289142485484e-02       9.316481389390e+03 
       6.318731151686e-02       9.319382411893e+03 
       6.348546093750e-02       9.322162268256e+03 
       6.378595246339e-02       9.324818597044e+03 
       6.408886916794e-02       9.327366320313e+03 
       6.439429808208e-02       9.329795066233e+03 
       6.470233044318e-02       9.332112692430e+03 
       6.501306196352e-02       9.334310901370e+03 
       6.532659312047e-02       9.336381233753e+03 
       6.564302947022e-02       9.338326055270e+03 
       6.596248198762e-02       9.340165780304e+03 
       6.628506743455e-02       9.341867761982e+03 
       6.661090875991e-02       9.343452800586e+03 
       6.694013553431e-02       9.344947633039e+03 
       6.727288442326e-02       9.346281078923e+03 
       6.760929970285e-02       9.347508513307e+03 
       6.794953382272e-02       9.348602567657e+03 
       6.829374802128e-02       9.349576834797e+03 
       6.864211299933e-02       9.350421364252e+03 
       6.899480965859e-02       9.351140648265e+03 
       6.935202991274e-02       9.351742702706e+03 
       6.971397757963e-02       9.352191488055e+03 
       7.008086936444e-02       9.352513233559e+03 
       7.045293594490e-02       9.352720810276e+03 
       7.083042317160e-02       9.352768455434e+03 
       7.121359339786e-02       9.352681187904e+03 
       7.160272695625e-02       9.352458179588e+03 
       7.199812380127e-02       9.352071138957e+03 
       7.240010534064e-02       9.351558663348e+03 
       7.280901648152e-02       9.350887106331e+03 
       7.322522792205e-02       9.350054724137e+03 
       7.364913872366e-02       9.349069351946e+03 
       7.408117920582e-02       9.347903577590e+03 
       7.452181421180e-02       9.346579599630e+03 
       7.497154680299e-02       9.345075844791e+03 
       7.543092244956e-02       9.343423995549e+03 
       7.590053379774e-02       9.341518315769e+03 
       7.638102610943e-02       9.339445231434e+03 
       7.687310348841e-02       9.337169013619e+03 
       7.737753602982e-02       9.334659099705e+03 
       7.789516805782e-02       9.331961282595e+03 
       7.842692765036e-02       9.328973247886e+03 
       7.897383769250e-02       9.325763129490e+03 
       7.953702875245e-02       9.322259909561e+03 
       8.011775414030e-02       9.318490996060e+03 
       8.071740759165e-02       9.314418046863e+03 
       8.133754412215e-02       9.310006910377e+03 
       8.197990472965e-02       9.305253817209e+03 
       8.264644578632e-02       9.300110201451e+03 
       8.333937417386e-02       9.294563182639e+03 
       8.406118948272e-02       9.288554321816e+03 
       8.481473493828e-02       9.282055519058e+03 
       8.560325915242e-02       9.275009443961e+03 
       8.643049135212e-02       9.267366162379e+03 
       8.730073343524e-02       9.259023692093e+03 
       8.821897307435e-02       9.249934677833e+03 
       8.919102315086e-02       9.239970914198e+03 
       9.022369404593e-02       9.229042897950e+03 
       9.132500666486e-02       9.216959687018e+03 
       9.250445530512e-02       9.203578762364e+03 
       9.377333006133e-02       9.188642069790e+03 
       9.514510724996e-02       9.171893796527e+03 
       9.663591101368e-02       9.152942030115e+03 
       9.826503537870e-02       9.131354513699e+03 
       1.000554855348e-01       9.106550597139e+03 
       1.020344366855e-01       9.077758568689e+03 
       1.042333999974e-01       9.043985435255e+03 
       1.066877123608e-01       9.004039839556e+03 
       1.094347478823e-01       8.956331490860e+03 
       1.125101097611e-01       8.899035238303e+03 
       1.159413348356e-01       8.830067715407e+03 
       1.197398176656e-01       8.747400719207e+03 
       1.238937665739e-01       8.649474001089e+03 
       1.283665165443e-01       8.535624191109e+03 
       1.331027888750e-01       8.406485983658e+03 
       1.380404939672e-01       8.264035638625e+03 
       1.431221189169e-01       8.111232906443e+03 
       1.483012668919e-01       7.951678962581e+03 
       1.535440073792e-01       7.789085657884e+03 
       1.588271405596e-01       7.626952834037e+03 
       1.641354934400e-01       7.468261652839e+03 
