# total [l(l+1)/2pi] C_l's (units: [microK]^2)
# for l=2 to 3000, i.e. number of multipoles equal to 2999
#
# -> if you don't want to see such a header, set 'headers' to 'no' in input file
# -> for CMB lensing (d), these are C_l^dd for the deflection field.
#    Remember the conversion factors:
#    C_l^dd (deflection) = l(l+1) C_l^phi-phi
#    C_l^gg (shear/convergence) = 1/4 (l(l+1))^2 C_l^phi-phi
#
# 1:l     2:TT                     3:EE                     4:BB                     5:TE                     6:dd                     7:dT                     8:dE                 
    2       1.564975359951e+03       1.018228542167e-01       0.000000000000e+00       4.238434880998e+00       4.124864608044e-08       4.818993433869e-03      -2.131895005651e-05 
    3       1.417058154824e+03       9.137896064229e-02       0.000000000000e+00       4.749890494568e+00       5.066984918433e-08       4.801577747235e-03      -1.798536256586e-05 
    4       1.273684551646e+03       5.301056051600e-02       0.000000000000e+00       4.091009673657e+00       5.858615440105e-08       4.601391921495e-03      -1.017485740525e-05 
    5       1.165720742216e+03       2.422370573940e-02       0.000000000000e+00       3.013394092355e+00       6.538039020006e-08       4.356751900539e-03      -2.652343205421e-06 
    6       1.089919643080e+03       1.116211090225e-02       0.000000000000e+00       2.027159049882e+00       7.125183830771e-08       4.115386123217e-03       2.032242745376e-06 
    7       1.037751123956e+03       6.631623211985e-03       0.000000000000e+00       1.351936090013e+00       7.637295006807e-08       3.893602247029e-03       3.405220709482e-06 
    8       1.002424132026e+03       4.795384094624e-03       0.000000000000e+00       9.869344877756e-01       8.085539822695e-08       3.691951078183e-03       2.416829162482e-06 
    9       9.788294794252e+02       3.716035546313e-03       0.000000000000e+00       8.367896544888e-01       8.479010193472e-08       3.505293934708e-03       5.405894503705e-07 
   10       9.636431387770e+02       3.005471694287e-03       0.000000000000e+00       7.977969520237e-01       8.823763598891e-08       3.330803446148e-03      -1.003347676656e-06 
   11       9.557821724407e+02       2.468608926629e-03       0.000000000000e+00       7.963869578196e-01       9.046917357362e-08       3.192280224948e-03      -1.617568380487e-06 
   12       9.528101881609e+02       2.039724436149e-03       0.000000000000e+00       7.973655807040e-01       9.313439907080e-08       3.035437259961e-03      -1.479212840766e-06 
   13       9.538539886590e+02       1.798143767315e-03       0.000000000000e+00       7.985196178851e-01       9.546455306004e-08       2.894667199605e-03      -9.824712512139e-07 
   14       9.583458852599e+02       1.814339255605e-03       0.000000000000e+00       8.126261662116e-01       9.749869621262e-08       2.754804169049e-03      -5.889345361410e-07 
   15       9.653605653224e+02       2.076135147628e-03       0.000000000000e+00       8.504276953067e-01       9.926811851386e-08       2.630714463250e-03      -5.060371418797e-07 
   16       9.747223791738e+02       2.521949255820e-03       0.000000000000e+00       9.139002026414e-01       1.008021269381e-07       2.518746333087e-03      -6.995913544923e-07 
   17       9.862388189392e+02       3.080117629445e-03       0.000000000000e+00       9.951266970330e-01       1.021232733608e-07       2.409417359125e-03      -9.906308702069e-07 
   18       9.991064881711e+02       3.691055812916e-03       0.000000000000e+00       1.080305278727e+00       1.032121497229e-07       2.304065740082e-03      -1.171389377402e-06 
   19       1.013444630291e+03       4.348324719128e-03       0.000000000000e+00       1.160011870256e+00       1.042073549298e-07       2.206894343057e-03      -1.186046478253e-06 
   20       1.029208631561e+03       5.067291746482e-03       0.000000000000e+00       1.226770941929e+00       1.049983854035e-07       2.115913737713e-03      -1.059400456368e-06 
   21       1.046361913781e+03       5.882682644160e-03       0.000000000000e+00       1.282539493678e+00       1.056593288315e-07       2.031525868590e-03      -8.783294499794e-07 
   22       1.064570489068e+03       6.836447714023e-03       0.000000000000e+00       1.333109813144e+00       1.061692122776e-07       1.951377309742e-03      -7.680463161904e-07 
   23       1.083729946523e+03       7.944022224607e-03       0.000000000000e+00       1.381509504243e+00       1.065869727260e-07       1.875164661505e-03      -7.527985809975e-07 
   24       1.103647031643e+03       9.209379342191e-03       0.000000000000e+00       1.429606768785e+00       1.068741161000e-07       1.801290328757e-03      -8.052700361768e-07 
   25       1.124434467620e+03       1.062839487303e-02       0.000000000000e+00       1.476086005240e+00       1.070764742122e-07       1.731334736574e-03      -8.744141195581e-07 
   26       1.146142031079e+03       1.219377230545e-02       0.000000000000e+00       1.518044650722e+00       1.071768392642e-07       1.666374705550e-03      -8.964949442444e-07 
   27       1.168646284235e+03       1.390868099948e-02       0.000000000000e+00       1.551684235201e+00       1.071982792084e-07       1.605707381623e-03      -8.658399176659e-07 
   28       1.191702068583e+03       1.578020772251e-02       0.000000000000e+00       1.573365907839e+00       1.071119703812e-07       1.546969232591e-03      -8.019679648640e-07 
   29       1.215370645882e+03       1.781978568833e-02       0.000000000000e+00       1.583736946667e+00       1.069784967354e-07       1.490664693928e-03      -7.264873401379e-07 
   30       1.239718777287e+03       2.004117443551e-02       0.000000000000e+00       1.585340040726e+00       1.068149813465e-07       1.437307098906e-03      -6.690860945179e-07 
   31       1.264722035634e+03       2.245777203925e-02       0.000000000000e+00       1.580881343188e+00       1.065560386741e-07       1.386433672101e-03      -6.607246411133e-07 
   32       1.290383149326e+03       2.507599576549e-02       0.000000000000e+00       1.570549281500e+00       1.062387385749e-07       1.338366948819e-03      -6.953125286657e-07 
   33       1.316635104947e+03       2.789930544814e-02       0.000000000000e+00       1.553696515248e+00       1.058870110142e-07       1.292941480350e-03      -7.471823847988e-07 
   34       1.343348415096e+03       3.093099497837e-02       0.000000000000e+00       1.529460419067e+00       1.054719961442e-07       1.249304823767e-03      -7.876046448949e-07 
   35       1.370506638388e+03       3.417834576551e-02       0.000000000000e+00       1.496567183670e+00       1.050199613811e-07       1.207588581797e-03      -8.189459117541e-07 
   36       1.398077414355e+03       3.764988478210e-02       0.000000000000e+00       1.453426054702e+00       1.045366345430e-07       1.167780929026e-03      -8.567796777947e-07 
   37       1.426001456319e+03       4.135371886931e-02       0.000000000000e+00       1.398532822744e+00       1.039903804122e-07       1.129465180316e-03      -9.178438321317e-07 
   38       1.454338933134e+03       4.529555348174e-02       0.000000000000e+00       1.331748978143e+00       1.034124653547e-07       1.092823030255e-03      -1.003796370512e-06 
   39       1.483162882685e+03       4.947997431095e-02       0.000000000000e+00       1.253444954273e+00       1.028321044066e-07       1.057929068487e-03      -1.110161809991e-06 
   40       1.512515181262e+03       5.391092204020e-02       0.000000000000e+00       1.164171554844e+00       1.022389507588e-07       1.024399031860e-03      -1.229942873286e-06 
   41       1.542405728048e+03       5.859246600982e-02       0.000000000000e+00       1.064349610112e+00       1.015954104750e-07       9.916195198685e-04      -1.354493846856e-06 
   42       1.572818801889e+03       6.353153217464e-02       0.000000000000e+00       9.531916047716e-01       1.009198173106e-07       9.598002996499e-04      -1.477588748733e-06 
   43       1.603702386515e+03       6.873599032984e-02       0.000000000000e+00       8.294470932118e-01       1.002327836435e-07       9.292775759267e-04      -1.592701819544e-06 
   44       1.634961845140e+03       7.421392644697e-02       0.000000000000e+00       6.916823716493e-01       9.952865127148e-08       9.002027096937e-04      -1.691785937872e-06 
   45       1.666495113569e+03       7.997307285411e-02       0.000000000000e+00       5.385809530099e-01       9.878532095464e-08       8.725858069993e-04      -1.767017825697e-06 
   46       1.698319289282e+03       8.601886548142e-02       0.000000000000e+00       3.699787212090e-01       9.802222221589e-08       8.465444793543e-04      -1.817372553261e-06 
   47       1.730475778373e+03       9.235582757299e-02       0.000000000000e+00       1.861190398186e-01       9.726200316183e-08       8.221000048797e-04      -1.844686469240e-06 
   48       1.762993474058e+03       9.898808165838e-02       0.000000000000e+00      -1.262565702304e-02       9.651112613967e-08       7.990761681976e-04      -1.852159038076e-06 
   49       1.795887398907e+03       1.059193287940e-01       0.000000000000e+00      -2.257472012192e-01       9.575499586792e-08       7.770678977160e-04      -1.844526708591e-06 
   50       1.829163692630e+03       1.131524027917e-01       0.000000000000e+00      -4.527742001403e-01       9.496753149887e-08       7.555912544832e-04      -1.827111170186e-06 
   51       1.862839321511e+03       1.206878384176e-01       0.000000000000e+00      -6.938602269841e-01       9.415991306773e-08       7.346863554297e-04      -1.802059180582e-06 
   52       1.896925371897e+03       1.285248786644e-01       0.000000000000e+00      -9.493437699585e-01       9.334820557202e-08       7.144996138825e-04      -1.770904979058e-06 
   53       1.931420138211e+03       1.366618260043e-01       0.000000000000e+00      -1.219584739978e+00       9.253805492736e-08       6.951109521045e-04      -1.735612874104e-06 
   54       1.966308063797e+03       1.450960016293e-01       0.000000000000e+00      -1.504966238931e+00       9.172185511235e-08       6.765225032710e-04      -1.698617290927e-06 
   55       2.001568019380e+03       1.538249023745e-01       0.000000000000e+00      -1.805825333880e+00       9.088536750057e-08       6.586911350097e-04      -1.662460960220e-06 
   56       2.037202973124e+03       1.628501014215e-01       0.000000000000e+00      -2.122221190276e+00       9.003927959431e-08       6.416686862635e-04      -1.628450379346e-06 
   57       2.073215836065e+03       1.721742452207e-01       0.000000000000e+00      -2.454112435323e+00       8.919745321386e-08       6.254925312470e-04      -1.597577705726e-06 
   58       2.109600090062e+03       1.817999464834e-01       0.000000000000e+00      -2.801422129409e+00       8.836694614371e-08       6.101377658178e-04      -1.570878955901e-06 
   59       2.146339092450e+03       1.917297900860e-01       0.000000000000e+00      -3.164036768377e+00       8.754628595237e-08       5.955087769782e-04      -1.549430697688e-06 
   60       2.183405380690e+03       2.019663389733e-01       0.000000000000e+00      -3.541805285792e+00       8.672358710298e-08       5.814304609689e-04      -1.534346480063e-06 
   61       2.220771505775e+03       2.125114008857e-01       0.000000000000e+00      -3.934583713970e+00       8.588288761382e-08       5.677098625053e-04      -1.526551311208e-06 
   62       2.258446947095e+03       2.233636228505e-01       0.000000000000e+00      -4.342383138603e+00       8.503155056584e-08       5.543670796572e-04      -1.526024561890e-06 
   63       2.296448287310e+03       2.345203647667e-01       0.000000000000e+00      -4.765253334781e+00       8.418129582878e-08       5.414653168561e-04      -1.532297143563e-06 
   64       2.334788091739e+03       2.459783737350e-01       0.000000000000e+00      -5.203240480799e+00       8.333999393017e-08       5.290435637539e-04      -1.544625855837e-06 
   65       2.373474578804e+03       2.577337665074e-01       0.000000000000e+00      -5.656387609136e+00       8.251072740012e-08       5.171132313440e-04      -1.561966029716e-06 
   66       2.412511290488e+03       2.697820119378e-01       0.000000000000e+00      -6.124735057446e+00       8.169077373469e-08       5.056546557601e-04      -1.582943222306e-06 
   67       2.451896762776e+03       2.821179134318e-01       0.000000000000e+00      -6.608320919543e+00       8.087050749207e-08       4.946134697527e-04      -1.605823962990e-06 
   68       2.491627838165e+03       2.947360358892e-01       0.000000000000e+00      -7.107154193591e+00       8.003817524342e-08       4.839259103614e-04      -1.628860116409e-06 
   69       2.531711119224e+03       3.076321262156e-01       0.000000000000e+00      -7.621126900529e+00       7.919934124142e-08       4.736124658532e-04      -1.651514594441e-06 
   70       2.572153254472e+03       3.208019504393e-01       0.000000000000e+00      -8.150084886880e+00       7.836306404734e-08       4.637057484560e-04      -1.673551724538e-06 
   71       2.612957269497e+03       3.342408686156e-01       0.000000000000e+00      -8.693853309112e+00       7.753612811376e-08       4.542220361854e-04      -1.694691077095e-06 
   72       2.654122330558e+03       3.479438286448e-01       0.000000000000e+00      -9.252236386349e+00       7.672252782828e-08       4.451593433284e-04      -1.714603887011e-06 
   73       2.695643508181e+03       3.619053600913e-01       0.000000000000e+00      -9.825017153064e+00       7.592291246160e-08       4.364954237256e-04      -1.732909365854e-06 
   74       2.737511540752e+03       3.761195680008e-01       0.000000000000e+00      -1.041195721180e+01       7.513399089816e-08       4.281857068499e-04      -1.749170904596e-06 
   75       2.779712598119e+03       3.905801267195e-01       0.000000000000e+00      -1.101279648584e+01       7.434789502671e-08       4.201611666839e-04      -1.762892166958e-06 
   76       2.822233235850e+03       4.052802882682e-01       0.000000000000e+00      -1.162726711532e+01       7.355564931006e-08       4.123507067096e-04      -1.773672889199e-06 
   77       2.865076823597e+03       4.202129228937e-01       0.000000000000e+00      -1.225513861747e+01       7.276066383295e-08       4.047604583302e-04      -1.781735000995e-06 
   78       2.908249696946e+03       4.353704747158e-01       0.000000000000e+00      -1.289618055052e+01       7.196885388264e-08       3.974120621483e-04      -1.787532322843e-06 
   79       2.951756104657e+03       4.507449420387e-01       0.000000000000e+00      -1.355014914294e+01       7.118463277076e-08       3.903191148056e-04      -1.791608704842e-06 
   80       2.995598078703e+03       4.663278714681e-01       0.000000000000e+00      -1.421678733619e+01       7.041061676450e-08       3.834862932602e-04      -1.794603918721e-06 
   81       3.039775304304e+03       4.821103520277e-01       0.000000000000e+00      -1.489582482742e+01       6.964731011776e-08       3.769084513993e-04      -1.797259697498e-06 
   82       3.084284989962e+03       4.980830092761e-01       0.000000000000e+00      -1.558697811223e+01       6.889276969073e-08       3.705696889883e-04      -1.800425922762e-06 
   83       3.129121737499e+03       5.142359994236e-01       0.000000000000e+00      -1.628995052735e+01       6.814224864611e-08       3.644423929557e-04      -1.805066959588e-06 
   84       3.174279786976e+03       5.305591974633e-01       0.000000000000e+00      -1.700443031290e+01       6.739045971122e-08       3.584974870901e-04      -1.812032724845e-06 
   85       3.219760463748e+03       5.470428102858e-01       0.000000000000e+00      -1.773008433649e+01       6.664011656796e-08       3.527403555663e-04      -1.821291414683e-06 
   86       3.265565733433e+03       5.636768548917e-01       0.000000000000e+00      -1.846656340219e+01       6.589549303744e-08       3.471820023152e-04      -1.832518715377e-06 
   87       3.311695848066e+03       5.804509708309e-01       0.000000000000e+00      -1.921350414780e+01       6.515985736670e-08       3.418281046400e-04      -1.845311668342e-06 
   88       3.358149256050e+03       5.973544175798e-01       0.000000000000e+00      -1.997052905435e+01       6.443529570892e-08       3.366785095339e-04      -1.859183311467e-06 
   89       3.404922512108e+03       6.143760719190e-01       0.000000000000e+00      -2.073724645548e+01       6.372252485203e-08       3.317267157430e-04      -1.873557187120e-06 
   90       3.452010187228e+03       6.315044253107e-01       0.000000000000e+00      -2.151325054689e+01       6.302069394509e-08       3.269593415735e-04      -1.887761716849e-06 
   91       3.499404778616e+03       6.487275812764e-01       0.000000000000e+00      -2.229812139580e+01       6.232717497193e-08       3.223555784451e-04      -1.901024442757e-06 
   92       3.547096619647e+03       6.660332527741e-01       0.000000000000e+00      -2.309142495039e+01       6.163734172149e-08       3.178866301885e-04      -1.912466135570e-06 
   93       3.595076414217e+03       6.834089811861e-01       0.000000000000e+00      -2.389271889529e+01       6.094645197788e-08       3.135245494672e-04      -1.921293592666e-06 
   94       3.643343471428e+03       7.008428366523e-01       0.000000000000e+00      -2.470157120503e+01       6.025648321085e-08       3.092723244574e-04      -1.927441533472e-06 
   95       3.691898548668e+03       7.183228187083e-01       0.000000000000e+00      -2.551754441148e+01       5.957089791392e-08       3.051394905856e-04      -1.931063833817e-06 
   96       3.740741284263e+03       7.358366444747e-01       0.000000000000e+00      -2.634019009490e+01       5.889261605757e-08       3.011330884184e-04      -1.932349128448e-06 
   97       3.789870143442e+03       7.533717490764e-01       0.000000000000e+00      -2.716904897362e+01       5.822392217008e-08       2.972574358365e-04      -1.931522790554e-06 
   98       3.839282364318e+03       7.709152860621e-01       0.000000000000e+00      -2.800365099372e+01       5.756636720289e-08       2.935138942449e-04      -1.928848953114e-06 
   99       3.888973903860e+03       7.884541278241e-01       0.000000000000e+00      -2.884351541874e+01       5.692066506951e-08       2.899006288181e-04      -1.924632572069e-06 
  100       3.938939383868e+03       8.059748660175e-01       0.000000000000e+00      -2.968815091935e+01       5.628658374683e-08       2.864123627807e-04      -1.919221531312e-06 
  101       3.989172036947e+03       8.234638119799e-01       0.000000000000e+00      -3.053705566304e+01       5.566283082779e-08       2.830401257235e-04      -1.913008789511e-06 
  102       4.039663652483e+03       8.409069971510e-01       0.000000000000e+00      -3.138971740380e+01       5.504693341438e-08       2.797709959545e-04      -1.906434568745e-06 
  103       4.090404522617e+03       8.582901734917e-01       0.000000000000e+00      -3.224561357186e+01       5.443511224003e-08       2.765878368857e-04      -1.899988584973e-06 
  104       4.141385224504e+03       8.755991138223e-01       0.000000000000e+00      -3.310421545275e+01       5.382365995349e-08       2.734744987785e-04      -1.894117915543e-06 
  105       4.192602357670e+03       8.928205581373e-01       0.000000000000e+00      -3.396500117466e+01       5.321380259328e-08       2.704332258353e-04      -1.888924208850e-06 
  106       4.244053484576e+03       9.099413965009e-01       0.000000000000e+00      -3.482744465088e+01       5.260789218618e-08       2.674702628301e-04      -1.884409532954e-06 
  107       4.295735330106e+03       9.269483842150e-01       0.000000000000e+00      -3.569101178001e+01       5.200796237569e-08       2.645905883155e-04      -1.880564688859e-06 
