# dimensionless total lensed [l(l+1)/2pi] C_l's
# for l=2 to 2500, i.e. number of multipoles equal to 2499
#
# -> if you prefer output in CAMB/HealPix/LensPix units/order, set 'format' to 'camb' in input file
# -> if you don't want to see such a header, set 'headers' to 'no' in input file
# -> for CMB lensing (phi), these are C_l^phi-phi for the lensing potential.
#    Remember the conversion factors:
#    C_l^dd (deflection) = l(l+1) C_l^phi-phi
#    C_l^gg (shear/convergence) = 1/4 (l(l+1))^2 C_l^phi-phi
#
# 1:l     2:TT                     3:EE                     4:TE                     5:BB                     6:phiphi                 7:TPhi                   8:Ephi               
    2       5.905391820504e-10       3.381216613463e-15       8.130380285924e-13       3.627793178310e-19       2.301202266474e-08      -2.963425729032e-09      -2.236991704232e-12 
    3       4.280028654762e-10       6.771551259672e-15       8.089442455336e-13       7.259367978258e-19       1.455420269219e-08      -1.922672860968e-09      -1.868692676278e-12 
    4       3.410798549815e-10       1.031506345022e-14       7.849698728472e-13       1.210725773866e-18       1.011964826727e-08      -1.378394595395e-09      -1.604096879138e-12 
    5       2.874401175156e-10       1.301953956447e-14       7.424889937423e-13       1.817624922398e-18       7.502822013840e-09      -1.051116113534e-09      -1.373802665469e-12 
    6       2.511159936468e-10       1.427971498308e-14       6.842897565907e-13       2.547211069068e-18       5.826057077281e-09      -8.351119496581e-10      -1.155353299051e-12 
    7       2.250075618578e-10       1.400479611819e-14       6.176923883055e-13       3.400145600876e-18       4.684963705100e-09      -6.834035183926e-10      -9.497894971849e-13 
    8       2.055174620651e-10       1.247898258732e-14       5.482777934604e-13       4.377158900532e-18       3.868561176117e-09      -5.718214916027e-10      -7.600237335380e-13 
    9       1.905456248672e-10       1.019135685323e-14       4.800873547651e-13       5.479033182485e-18       3.258425285586e-09      -4.867697224931e-10      -5.884268489608e-13 
   10       1.788376740148e-10       7.668571495068e-15       4.157773791829e-13       6.706584153451e-18       2.785111126475e-09      -4.200502863806e-10      -4.366549199278e-13 
   11       1.695631495865e-10       5.347606956180e-15       3.569404939697e-13       8.060641954788e-18       2.075150556530e-09      -3.473713603932e-10      -3.064092246325e-13 
   12       1.621041876486e-10       3.506451564035e-15       3.046331562986e-13       9.542031868564e-18       1.795004752013e-09      -3.047118508719e-10      -1.971806840537e-13 
   13       1.561085072560e-10       2.250668041450e-15       2.594764435520e-13       1.115155528283e-17       1.567593275403e-09      -2.693715270151e-10      -1.079978910421e-13 
   14       1.513015882619e-10       1.542082139359e-15       2.217829366225e-13       1.288997141363e-17       1.380363344292e-09      -2.399189746672e-10      -3.882143253720e-14 
   15       1.473982909811e-10       1.250845051947e-15       1.916839954320e-13       1.475798027120e-17       1.224315668349e-09      -2.149003337061e-10       1.242294831873e-14 
   16       1.442515747943e-10       1.212387132865e-15       1.689920369981e-13       1.675620733512e-17       1.092851500739e-09      -1.935787501605e-10       4.686923527562e-14 
   17       1.417493856218e-10       1.275006149064e-15       1.532154962000e-13       1.888519036818e-17       9.810490989400e-10      -1.750933197065e-10       6.710043479614e-14 
   18       1.397315034094e-10       1.325749367300e-15       1.436943515266e-13       2.114536789731e-17       8.847002435295e-10      -1.590688957284e-10       7.524093384380e-14 
   19       1.381715528561e-10       1.322969862203e-15       1.398590857372e-13       2.353707566314e-17       8.023062830818e-10      -1.452597012538e-10       7.338217562037e-14 
   20       1.369683553946e-10       1.249095497550e-15       1.405547675989e-13       2.606053219362e-17       7.302072055981e-10      -1.329942694748e-10       6.470517723887e-14 
   21       1.360861254013e-10       1.129785877556e-15       1.448996751525e-13       2.871585171675e-17       6.671232515292e-10      -1.221041910674e-10       5.126227837001e-14 
   22       1.354493646311e-10       1.010502442079e-15       1.517894159574e-13       3.150302859319e-17       6.114872681455e-10      -1.124115297568e-10       3.514115628866e-14 
   23       1.350471335385e-10       9.225328514894e-16       1.603886239848e-13       3.442196292510e-17       5.624384776351e-10      -1.038030123372e-10       1.803832503785e-14 
   24       1.348476717431e-10       8.909515977595e-16       1.697915961087e-13       3.747244476031e-17       5.187211805019e-10      -9.607747648201e-11       1.638853451029e-15 
   25       1.348321582355e-10       9.176847409973e-16       1.793496381285e-13       4.065419665020e-17       4.797586110064e-10      -8.912721318549e-11      -1.301916941547e-14 
   26       1.349606195388e-10       9.926210462005e-16       1.884538439600e-13       4.396685205862e-17       4.447924260050e-10      -8.281223205352e-11      -2.514327865942e-14 
   27       1.352286263938e-10       1.095782765530e-15       1.967820005068e-13       4.741000134258e-17       4.133595261510e-10      -7.708640783604e-11      -3.433151406916e-14 
   28       1.356247926285e-10       1.203141646803e-15       2.041139280163e-13       5.098318082268e-17       3.848718973917e-10      -7.189167346379e-11      -4.040998672011e-14 
   29       1.361478279437e-10       1.305145124059e-15       2.103835498975e-13       5.468596131501e-17       3.591577408997e-10      -6.719830698616e-11      -4.344038061426e-14 
   30       1.367771409066e-10       1.395686559591e-15       2.155954637351e-13       5.851788596321e-17       3.359140515190e-10      -6.293590099727e-11      -4.369810322374e-14 
   31       1.374754685499e-10       1.470414179548e-15       2.198041081909e-13       6.247848315192e-17       3.146332666946e-10      -5.899833368228e-11      -4.162352042828e-14 
   32       1.382452824706e-10       1.536981219054e-15       2.231584698335e-13       6.656740184264e-17       2.951894011212e-10      -5.537055275230e-11      -3.765963089466e-14 
   33       1.390896989120e-10       1.608962330102e-15       2.258819456773e-13       7.078433426496e-17       2.774309295043e-10      -5.204222931158e-11      -3.238045844626e-14 
   34       1.400011823248e-10       1.700647377937e-15       2.282321437046e-13       7.512901789472e-17       2.610919337825e-10      -4.898183409976e-11      -2.645785717636e-14 
   35       1.409793854537e-10       1.817241699844e-15       2.303842766962e-13       7.960134529567e-17       2.460784031226e-10      -4.617176927328e-11      -2.034944107771e-14 
   36       1.420170897897e-10       1.961324778410e-15       2.325109940956e-13       8.420130546940e-17       2.322592607837e-10      -4.358131176849e-11      -1.451481898186e-14 
   37       1.431005448822e-10       2.134603731115e-15       2.347816772841e-13       8.892898056414e-17       2.194421675129e-10      -4.116857362524e-11      -9.421388401337e-15 
   38       1.442312609603e-10       2.335138516077e-15       2.372494049549e-13       9.378460555905e-17       2.075880791426e-10      -3.892658751627e-11      -5.263000609610e-15 
   39       1.454097940622e-10       2.559092590461e-15       2.399261285515e-13       9.876854385913e-17       1.966543132834e-10      -3.684996176311e-11      -2.150099502056e-15 
   40       1.466289299390e-10       2.801364481419e-15       2.428113057278e-13       1.038812836843e-16       1.865294810402e-10      -3.492117751783e-11      -1.832709275016e-16 
   41       1.478778970890e-10       3.056978656717e-15       2.458759475211e-13       1.091234302590e-16       1.770711397552e-10      -3.311691080590e-11       5.834185421793e-16 
   42       1.491585000853e-10       3.326010880185e-15       2.490116091512e-13       1.144956560117e-16       1.682478156094e-10      -3.143203700675e-11       2.633632011062e-16 
   43       1.504729465506e-10       3.610120453776e-15       2.520626269331e-13       1.199987504853e-16       1.600331858459e-10      -2.986164598883e-11      -9.417753389531e-16 
   44       1.518189027654e-10       3.911225820674e-15       2.548370965139e-13       1.256336447848e-16       1.523635523356e-10      -2.839378012249e-11      -2.770152908007e-15 
   45       1.531919193959e-10       4.230970300821e-15       2.571313203857e-13       1.314013411042e-16       1.451599099066e-10      -2.701358458835e-11      -4.937517807318e-15 
   46       1.545945757967e-10       4.568893523399e-15       2.588172805242e-13       1.373026561501e-16       1.384089923051e-10      -2.571855352361e-11      -7.273055303153e-15 
   47       1.560293459626e-10       4.923738810098e-15       2.597774082321e-13       1.433384154724e-16       1.321014219829e-10      -2.450689220034e-11      -9.617620830358e-15 
   48       1.574957304172e-10       5.293938744968e-15       2.598793715774e-13       1.495095296286e-16       1.262073075357e-10      -2.337292446924e-11      -1.178424207646e-14 
   49       1.589899950621e-10       5.677598524970e-15       2.589753180261e-13       1.558169981365e-16       1.206747258174e-10      -2.230680564320e-11      -1.355667427049e-14 
   50       1.605071389672e-10       6.073087989594e-15       2.569332098255e-13       1.622617926095e-16       1.154450516250e-10      -2.129747587492e-11      -1.473751839319e-14 
   51       1.620480333027e-10       6.481045785919e-15       2.537426145635e-13       1.688444595942e-16       1.105073737436e-10      -2.034313148060e-11      -1.531132536465e-14 
   52       1.636137687749e-10       6.902890431912e-15       2.494363211064e-13       1.755654167598e-16       1.058562257631e-10      -1.944309964040e-11      -1.532326737288e-14 
   53       1.652034434971e-10       7.340270893767e-15       2.440614916384e-13       1.824250626018e-16       1.014753216148e-10      -1.859471489672e-11      -1.483431102912e-14 
   54       1.668140067309e-10       7.795078580177e-15       2.376804145418e-13       1.894237747089e-16       9.733683051201e-11      -1.779318453165e-11      -1.392210502954e-14 
   55       1.684418245129e-10       8.269161934987e-15       2.303610971436e-13       1.965618153600e-16       9.340969834375e-11      -1.703306792856e-11      -1.267674393920e-14 
   56       1.700881899667e-10       8.763359709758e-15       2.221445825174e-13       2.038390248216e-16       8.968869366643e-11      -1.631345342478e-11      -1.118479363861e-14 
   57       1.717549081703e-10       9.278248544260e-15       2.130708322032e-13       2.112550488234e-16       8.617130736280e-11      -1.563383169829e-11      -9.542852264163e-15 
   58       1.734426069718e-10       9.814419725437e-15       2.031885242460e-13       2.188094193262e-16       8.284897389136e-11      -1.499252428002e-11      -7.862999451735e-15 
   59       1.751506478159e-10       1.037247959460e-14       1.925554102278e-13       2.265015491785e-16       7.970669868689e-11      -1.438661181381e-11      -6.273484366645e-15 
   60       1.768770365723e-10       1.095304995462e-14       1.812386722981e-13       2.343307267727e-16       7.672268556097e-11      -1.381186231632e-11      -4.919413733703e-15 
   61       1.786194845877e-10       1.155663905284e-14       1.692952079640e-13       2.422961544910e-16       7.387430968251e-11      -1.326387060893e-11      -3.929915676174e-15 
   62       1.803790718901e-10       1.218321976795e-14       1.567065055460e-13       2.503970862141e-16       7.115844613289e-11      -1.274193777792e-11      -3.309461942186e-15 
   63       1.821572517337e-10       1.283255703435e-14       1.434297178517e-13       2.586327113358e-16       6.857506389477e-11      -1.224593915967e-11      -3.023261690903e-15 
   64       1.839547212965e-10       1.350432528554e-14       1.294161702027e-13       2.670021098225e-16       6.612111504957e-11      -1.177515735790e-11      -3.028264893621e-15 
   65       1.857713690032e-10       1.419810475479e-14       1.146110805889e-13       2.755042482589e-16       6.379036351843e-11      -1.132824893314e-11      -3.272786666565e-15 
   66       1.876062218487e-10       1.491337777582e-14       9.895327982281e-14       2.841379758939e-16       6.157321380318e-11      -1.090321109231e-11      -3.696131603678e-15 
   67       1.894573927209e-10       1.564952508347e-14       8.237493169370e-14       2.929020206867e-16       5.945653972730e-11      -1.049734837814e-11      -4.228218109421e-15 
   68       1.913229272044e-10       1.640597973510e-14       6.481199987713e-14       3.017952006571e-16       5.742715561236e-11      -1.010797987409e-11      -4.800097632811e-15 
   69       1.932036609858e-10       1.718273336093e-14       4.623873700390e-14       3.108171165045e-16       5.548342936923e-11      -9.734801678602e-12      -5.378827210173e-15 
   70       1.951008494632e-10       1.797992631901e-14       2.663971336637e-14       3.199675928735e-16       5.362572567942e-11      -9.377945489367e-12      -5.939020618857e-15 
   71       1.970152903543e-10       1.879769947657e-14       5.999683589717e-15       3.292464769913e-16       5.185289506061e-11      -9.037266329273e-12      -6.452483395196e-15 
   72       1.989472940236e-10       1.963619454194e-14      -1.569641836075e-14       3.386536402206e-16       5.016219576444e-11      -8.712328174942e-12      -6.888115809277e-15 
   73       2.008966538108e-10       2.049555439638e-14      -3.846348417237e-14       3.481889796113e-16       4.854921567446e-11      -8.402389585247e-12      -7.211815839707e-15 
   74       2.028626163582e-10       2.137592342599e-14      -6.231623617781e-14       3.578524194538e-16       4.700779420396e-11      -8.106389329833e-12      -7.386382148386e-15 
   75       2.048438519383e-10       2.227744785357e-14      -8.726923234781e-14       3.676439128309e-16       4.552994419388e-11      -7.822932017641e-12      -7.371417055269e-15 
   76       2.068390538961e-10       2.320023252675e-14      -1.133303613057e-13       3.775635380727e-16       4.410782165602e-11      -7.550632813342e-12      -7.136707462177e-15 
   77       2.088489287631e-10       2.414420145125e-14      -1.404799468639e-13       3.876118049954e-16       4.274022233223e-11      -7.289255927039e-12      -6.705399137626e-15 
   78       2.108745168275e-10       2.510921231001e-14      -1.686878244664e-13       3.977894075865e-16       4.142713342239e-11      -7.038758588136e-12      -6.118555773981e-15 
   79       2.129165787147e-10       2.609509719876e-14      -1.979193867119e-13       4.080971374987e-16       4.016775531134e-11      -6.798943480525e-12      -5.422555936368e-15 
   80       2.149755786157e-10       2.710166206507e-14      -2.281354548538e-13       4.185358875484e-16       3.896046545950e-11      -6.569451734498e-12      -4.669272413710e-15 
   81       2.170516675155e-10       2.812868614730e-14      -2.592921503006e-13       4.291066552142e-16       3.780278229350e-11      -6.349755918660e-12      -3.916251569754e-15 
   82       2.191446664209e-10       2.917592141358e-14      -2.913407661164e-13       4.398105461352e-16       3.669132909673e-11      -6.139153031834e-12      -3.226892694107e-15 
   83       2.212540495890e-10       3.024309200081e-14      -3.242276385211e-13       4.506487776099e-16       3.562179790001e-11      -5.936757494974e-12      -2.670627353257e-15 
   84       2.233792846337e-10       3.132991694896e-14      -3.579064608949e-13       4.616224429466e-16       3.458999207432e-11      -5.741715383836e-12      -2.306677579726e-15 
   85       2.255209543642e-10       3.243618396326e-14      -3.923778527900e-13       4.727317519678e-16       3.359523179497e-11      -5.553903284254e-12      -2.131843897068e-15 
   86       2.276797910380e-10       3.356168690846e-14      -4.276561455248e-13       4.839766704264e-16       3.263744955138e-11      -5.373332981948e-12      -2.124350242277e-15 
   87       2.298563254034e-10       3.470620343377e-14      -4.637576023416e-13       4.953571474459e-16       3.171614392525e-11      -5.199937281366e-12      -2.259400331997e-15 
   88       2.320508759256e-10       3.586949480331e-14      -5.007004990252e-13       5.068731149993e-16       3.083036161063e-11      -5.033566715922e-12      -2.509081027639e-15 
   89       2.342635380129e-10       3.705130572663e-14      -5.385052045206e-13       5.185244873886e-16       2.997867943397e-11      -4.873986258245e-12      -2.842265700496e-15 
   90       2.364941732430e-10       3.825136418920e-14      -5.771942615513e-13       5.303111607237e-16       2.915918637417e-11      -4.720872030413e-12      -3.224517596857e-15 
   91       2.387423985892e-10       3.946938128293e-14      -6.167924672373e-13       5.422330124021e-16       2.836946558262e-11      -4.573808014202e-12      -3.617993203131e-15 
   92       2.410075756464e-10       4.070505103664e-14      -6.573269537131e-13       5.542899005876e-16       2.760657640332e-11      -4.432282761324e-12      -3.981345610954e-15 
   93       2.432891279626e-10       4.195805006835e-14      -6.988200506308e-13       5.664815851252e-16       2.686775108032e-11      -4.295807435516e-12      -4.278389984854e-15 
   94       2.455875710279e-10       4.322803685042e-14      -7.412664696078e-13       5.788074778103e-16       2.615264379734e-11      -4.164297392599e-12      -4.505800693494e-15 
   95       2.479036179970e-10       4.451465201998e-14      -7.846528214059e-13       5.912668534221e-16       2.546138822470e-11      -4.037742174693e-12      -4.669420543713e-15 
   96       2.502378592010e-10       4.581751837765e-14      -8.289645100807e-13       6.038589233641e-16       2.479390491101e-11      -3.916087689413e-12      -4.775893169875e-15 
   97       2.525907558776e-10       4.713624071563e-14      -8.741857145175e-13       6.165828340646e-16       2.414989311365e-11      -3.799234585613e-12      -4.832686674930e-15 
   98       2.549626339009e-10       4.847040564572e-14      -9.202993699672e-13       6.294376653777e-16       2.352882262919e-11      -3.687036629135e-12      -4.848117271473e-15 
   99       2.573536775118e-10       4.981958142740e-14      -9.672871495831e-13       6.424224289840e-16       2.292992562387e-11      -3.579299078548e-12      -4.831372922805e-15 
  100       2.597639230477e-10       5.118331779586e-14      -1.015129445956e-12       6.555360667910e-16       2.235218846405e-11      -3.475777060895e-12      -4.792536983995e-15 
  101       2.621932526726e-10       5.256114579007e-14      -1.063805352653e-12       6.687774493346e-16       2.179434354663e-11      -3.376173947440e-12      -4.742611842941e-15 
  102       2.646413881075e-10       5.395257758081e-14      -1.113292645749e-12       6.821453741794e-16       2.125486112955e-11      -3.280139729408e-12      -4.693542561427e-15 
  103       2.671078843599e-10       5.535710629877e-14      -1.163567765368e-12       6.956385643194e-16       2.073194116221e-11      -3.187269393732e-12      -4.658240516187e-15 
  104       2.695923199679e-10       5.677419483248e-14      -1.214607036485e-12       7.092560234972e-16       2.022392186239e-11      -3.097191136885e-12      -4.647843534038e-15 
  105       2.720949105029e-10       5.820324086932e-14      -1.266390558926e-12       7.229981602696e-16       1.973058590091e-11      -3.009848076135e-12      -4.663023860395e-15 
  106       2.746159666394e-10       5.964360678956e-14      -1.318898810877e-12       7.368658135121e-16       1.925201625453e-11      -2.925251742458e-12      -4.701544631606e-15 
  107       2.771557009801e-10       6.109462998505e-14      -1.372111451750e-12       7.508599113556e-16       1.878819166931e-11      -2.843395011371e-12      -4.760911883459e-15 
