# Matter power spectrum P(k) at redshift z=0
# for k=0.000782009 to 164.874 h/Mpc,
# number of wavenumbers equal to 514
#    1:k (h/Mpc)              2:P (Mpc/h)^3        
       7.820086282836e-04       1.738672599808e-04 
       6.176824265487e-03       1.269193145769e-03 
       1.871764860762e-02       3.683688359102e-03 
       3.155027952630e-02       6.076224101476e-03 
       4.440693604990e-02       8.420801133367e-03 
       5.727029028321e-02       1.072271406032e-02 
       7.013655155014e-02       1.298536955583e-02 
       8.300443101593e-02       1.521081171174e-02 
       9.587337539467e-02       1.740030252176e-02 
       1.087431103847e-01       1.955467766893e-02 
       1.216134863666e-01       2.167454618959e-02 
       1.344844162744e-01       2.376039663899e-02 
       1.473558472617e-01       2.581239226371e-02 
       1.602277465099e-01       2.783113047407e-02 
       1.731000935823e-01       2.981695724737e-02 
       1.859728760534e-01       3.177020595306e-02 
       1.988460868884e-01       3.369121404306e-02 
       2.117197228061e-01       3.558029417493e-02 
       2.245937832208e-01       3.743775797144e-02 
       2.374682695390e-01       3.926393402555e-02 
       2.503431846784e-01       4.105917115538e-02 
       2.632185327328e-01       4.282379114232e-02 
       2.760943187337e-01       4.455816125053e-02 
       2.889705484783e-01       4.626262452434e-02 
       3.018472284028e-01       4.793754320298e-02 
       3.147243654885e-01       4.958328413520e-02 
       3.276019671917e-01       5.120021182218e-02 
       3.404800413906e-01       5.278870390955e-02 
       3.533585963442e-01       5.434928538162e-02 
       3.662376406622e-01       5.588209335874e-02 
       3.791171832808e-01       5.738745526352e-02 
       3.919972334447e-01       5.886576832786e-02 
       4.048778006937e-01       6.031750151948e-02 
       4.177588948522e-01       6.174295047838e-02 
       4.306405260218e-01       6.314246453445e-02 
       4.435227045756e-01       6.451643006849e-02 
       4.564054411550e-01       6.586513762092e-02 
       4.692887466670e-01       6.718894260230e-02 
       4.821726322839e-01       6.848817702567e-02 
       4.950571094424e-01       6.976316801121e-02 
       5.079421898451e-01       7.101423675918e-02 
       5.208278854616e-01       7.224174528170e-02 
       5.337142085310e-01       7.344596602164e-02 
       5.466011715640e-01       7.462723127217e-02 
       5.594887873463e-01       7.578587265177e-02 
       5.723770689420e-01       7.692218579788e-02 
       5.852660296977e-01       7.803647104221e-02 
       5.981556832460e-01       7.912905299887e-02 
       6.110460435106e-01       8.020020247076e-02 
       6.239371247109e-01       8.125021660173e-02 
       6.368289413666e-01       8.227936695255e-02 
       6.497215083033e-01       8.328792011062e-02 
       6.626148406578e-01       8.427621165344e-02 
       6.755089538839e-01       8.524445799682e-02 
       6.884038637578e-01       8.619292519705e-02 
       7.012995863848e-01       8.712189530006e-02 
       7.141961382051e-01       8.803162235651e-02 
       7.270935360002e-01       8.892230998907e-02 
       7.399917968998e-01       8.979427317989e-02 
       7.528909383886e-01       9.064776210742e-02 
       7.657909783130e-01       9.148297531475e-02 
       7.786919348886e-01       9.230017137716e-02 
       7.915938267073e-01       9.309959932199e-02 
       8.044966727451e-01       9.388143795072e-02 
       8.174004923695e-01       9.464595443246e-02 
       8.303053053478e-01       9.539336952072e-02 
       8.432111318549e-01       9.612396337569e-02 
       8.561179924818e-01       9.683789338215e-02 
       8.690259082439e-01       9.753533844579e-02 
       8.819349005899e-01       9.821655638636e-02 
       8.948449914106e-01       9.888173824486e-02 
       9.077562030479e-01       9.953104097665e-02 
       9.206685583041e-01       1.001648089210e-01 
       9.335820804515e-01       1.007831131426e-01 
       9.464967932421e-01       1.013861542020e-01 
       9.594127209177e-01       1.019741503445e-01 
       9.723298882194e-01       1.025473480491e-01 
       9.852483203990e-01       1.031058451226e-01 
       9.981680432287e-01       1.036498183965e-01 
       1.011089083012e+00       1.041794961053e-01 
       1.024011466597e+00       1.046950728682e-01 
       1.036935221382e+00       1.051966797022e-01 
       1.049860375335e+00       1.056845667365e-01 
       1.062786956999e+00       1.061587745528e-01 
       1.075714995508e+00       1.066196461352e-01 
       1.088644520596e+00       1.070671784848e-01 
       1.101575562613e+00       1.075016911623e-01 
       1.114508152537e+00       1.079231968445e-01 
       1.127442321986e+00       1.083319495956e-01 
       1.140378103231e+00       1.087280592940e-01 
       1.153315529213e+00       1.091117765171e-01 
       1.166254633554e+00       1.094831307436e-01 
       1.179195450572e+00       1.098423636723e-01 
       1.192138015299e+00       1.101895866651e-01 
       1.205082363490e+00       1.105249078188e-01 
       1.218028531643e+00       1.108485085731e-01 
       1.230976557014e+00       1.111606252966e-01 
       1.243926477633e+00       1.114613233574e-01 
       1.256878332318e+00       1.117506858929e-01 
       1.269832160696e+00       1.120289152537e-01 
       1.282788003217e+00       1.122962301274e-01 
       1.295745901174e+00       1.125526534456e-01 
       1.308705896717e+00       1.127983355208e-01 
       1.321668032878e+00       1.130334577580e-01 
       1.334632353582e+00       1.132581111833e-01 
       1.347598903672e+00       1.134725061290e-01 
       1.360567728928e+00       1.136766713457e-01 
       1.373538876084e+00       1.138707565872e-01 
       1.386512392852e+00       1.140549541963e-01 
       1.399488327941e+00       1.142292440172e-01 
       1.412466731078e+00       1.143939972464e-01 
       1.425447653033e+00       1.145491066655e-01 
       1.438431145640e+00       1.146947994807e-01 
       1.451417261817e+00       1.148311731450e-01 
       1.464406055597e+00       1.149583515139e-01 
       1.477397582142e+00       1.150764438161e-01 
       1.490391897778e+00       1.151856021756e-01 
       1.503389060014e+00       1.152858801111e-01 
       1.516389127568e+00       1.153774876117e-01 
       1.529392160395e+00       1.154605478152e-01 
       1.542398219717e+00       1.155350746606e-01 
       1.555407368045e+00       1.156012954852e-01 
       1.568419669210e+00       1.156592665027e-01 
       1.581435188393e+00       1.157090853050e-01 
       1.594453992153e+00       1.157507749705e-01 
       1.607476148460e+00       1.157846116650e-01 
       1.620501726722e+00       1.158106189615e-01 
       1.633530797823e+00       1.158289177934e-01 
       1.646563434148e+00       1.158395422183e-01 
       1.659599709622e+00       1.158426433444e-01 
       1.672639699745e+00       1.158383849317e-01 
       1.685683481623e+00       1.158269130633e-01 
       1.698731134004e+00       1.158081399565e-01 
       1.711782737321e+00       1.157822925978e-01 
       1.724838373721e+00       1.157494916243e-01 
       1.737898127113e+00       1.157098232417e-01 
       1.750962083197e+00       1.156633168622e-01 
       1.764030329516e+00       1.156102441480e-01 
       1.777102955488e+00       1.155504536281e-01 
       1.790180052453e+00       1.154841558062e-01 
       1.803261713717e+00       1.154115520790e-01 
       1.816348034596e+00       1.153325417257e-01 
       1.829439112461e+00       1.152473314802e-01 
       1.842535046787e+00       1.151560988814e-01 
       1.855635939199e+00       1.150588132299e-01 
       1.868741893523e+00       1.149556353190e-01 
       1.881853015837e+00       1.148465618189e-01 
       1.894969414520e+00       1.147318000412e-01 
       1.908091200309e+00       1.146113992182e-01 
       1.921218486354e+00       1.144853182347e-01 
       1.934351388270e+00       1.143538178788e-01 
       1.947490024197e+00       1.142170846009e-01 
       1.960634514862e+00       1.140749208553e-01 
       1.973784983633e+00       1.139275992897e-01 
       1.986941556588e+00       1.137750585168e-01 
       2.000104362574e+00       1.136174802499e-01 
       2.013273533276e+00       1.134550390906e-01 
       2.026449203281e+00       1.132877473042e-01 
       2.039631510150e+00       1.131155310667e-01 
       2.052820594488e+00       1.129387479388e-01 
       2.066016600016e+00       1.127572267051e-01 
       2.079219673647e+00       1.125713866148e-01 
       2.092429965562e+00       1.123807312642e-01 
       2.105647629289e+00       1.121859730694e-01 
       2.118872821787e+00       1.119868379007e-01 
       2.132105703524e+00       1.117833089548e-01 
       2.145346438568e+00       1.115758642263e-01 
       2.158595194670e+00       1.113643755142e-01 
       2.171852143361e+00       1.111486779252e-01 
       2.185117460039e+00       1.109292500064e-01 
       2.198391324068e+00       1.107058108487e-01 
       2.211673918875e+00       1.104788693705e-01 
       2.224965432053e+00       1.102478769145e-01 
       2.238266055465e+00       1.100135033170e-01 
       2.251575985348e+00       1.097754793672e-01 
       2.264895422427e+00       1.095341601161e-01 
       2.278224572029e+00       1.092892490935e-01 
       2.291563644195e+00       1.090410827506e-01 
       2.304912853805e+00       1.087895658438e-01 
       2.318272420702e+00       1.085354720839e-01 
       2.331642569815e+00       1.082771007404e-01 
       2.345023531296e+00       1.080163081163e-01 
       2.358415540651e+00       1.077526004178e-01 
       2.371818838882e+00       1.074857658040e-01 
       2.385233672630e+00       1.072161106901e-01 
       2.398660294324e+00       1.069437002274e-01 
       2.412098962331e+00       1.066683308915e-01 
       2.425549941118e+00       1.063909163059e-01 
       2.439013501410e+00       1.061100637892e-01 
       2.452489920360e+00       1.058271894110e-01 
       2.465979481722e+00       1.055417339791e-01 
       2.479482476026e+00       1.052538745585e-01 
       2.492999200768e+00       1.049633234225e-01 
       2.506529960595e+00       1.046708356861e-01 
       2.520075067503e+00       1.043760546863e-01 
       2.533634841038e+00       1.040788978645e-01 
       2.547209608509e+00       1.037799142552e-01 
       2.560799705200e+00       1.034786430790e-01 
       2.574405474595e+00       1.031754656257e-01 
       2.588027268611e+00       1.028703292318e-01 
       2.601665447831e+00       1.025630154806e-01 
       2.615320381757e+00       1.022540492363e-01 
       2.628992449062e+00       1.019433074917e-01 
       2.642682037853e+00       1.016310406288e-01 
       2.656389545948e+00       1.013165869705e-01 
       2.670115381154e+00       1.010009033657e-01 
       2.683859961563e+00       1.006831946872e-01 
       2.697623715854e+00       1.003640369552e-01 
       2.711407083607e+00       1.000437755333e-01 
       2.725210515627e+00       9.972167138765e-02 
       2.739034474283e+00       9.939821049111e-02 
       2.752879433855e+00       9.907330430814e-02 
       2.766745880897e+00       9.874748113444e-02 
       2.780634314615e+00       9.842023009277e-02 
       2.794545247250e+00       9.809167502171e-02 
       2.808479204489e+00       9.776194313016e-02 
       2.822436725881e+00       9.743115174411e-02 
       2.836418365274e+00       9.709922853439e-02 
       2.850424691263e+00       9.676649675336e-02 
       2.864456287667e+00       9.643232496243e-02 
       2.878513754012e+00       9.609723987703e-02 
       2.892597706038e+00       9.576136145254e-02 
       2.906708776230e+00       9.542459394902e-02 
       2.920847614365e+00       9.508719104960e-02 
       2.935014888081e+00       9.474865609006e-02 
       2.949211283474e+00       9.440955698011e-02 
       2.963437505716e+00       9.406969418906e-02 
       2.977694279698e+00       9.372913235184e-02 
       2.991982350701e+00       9.338784685353e-02 
       3.006302485096e+00       9.304588788490e-02 
       3.020655471074e+00       9.270334743182e-02 
       3.035042119404e+00       9.236035587940e-02 
       3.049463264226e+00       9.201676874456e-02 
       3.063919763884e+00       9.167261890582e-02 
       3.078412501782e+00       9.132818918085e-02 
       3.092942387291e+00       9.098300782269e-02 
       3.107510356694e+00       9.063746291634e-02 
       3.122117374165e+00       9.029194516542e-02 
       3.136764432808e+00       8.994580414235e-02 
       3.151452555725e+00       8.959933050798e-02 
       3.166182797154e+00       8.925243392812e-02 
       3.180956243643e+00       8.890551719179e-02 
       3.195774015288e+00       8.855832734414e-02 
       3.210637267031e+00       8.821072346005e-02 
       3.225547190018e+00       8.786307379094e-02 
       3.240505013023e+00       8.751509034589e-02 
       3.255512003943e+00       8.716715426045e-02 
       3.270569471364e+00       8.681906214320e-02 
       3.285678766218e+00       8.647111941402e-02 
       3.300841283503e+00       8.612248444172e-02 
       3.316058464111e+00       8.577395138019e-02 
       3.331331796741e+00       8.542574153429e-02 
       3.346662819910e+00       8.507746466198e-02 
       3.362053124077e+00       8.472858776264e-02 
       3.377504353879e+00       8.438016016714e-02 
       3.393018210480e+00       8.403194954992e-02 
       3.408596454059e+00       8.368325550120e-02 
       3.424240906429e+00       8.333503659852e-02 
       3.439953453800e+00       8.298671422193e-02 
       3.455736049707e+00       8.263836890329e-02 
       3.471590718092e+00       8.229016839051e-02 
       3.487519556578e+00       8.194209737650e-02 
       3.503524739917e+00       8.159417916677e-02 
       3.519608523660e+00       8.124624532976e-02 
       3.535773248030e+00       8.089855764778e-02 
       3.552021342038e+00       8.055106415435e-02 
       3.568355327848e+00       8.020365427322e-02 
       3.584777825412e+00       7.985614574373e-02 
       3.601291557393e+00       7.950881240727e-02 
       3.617899354402e+00       7.916198396020e-02 
       3.634604160574e+00       7.881506034095e-02 
       3.651409039495e+00       7.846847060776e-02 
       3.668317180535e+00       7.812174790015e-02 
       3.685331905590e+00       7.777537860772e-02 
       3.702456676280e+00       7.742897303249e-02 
       3.719695101652e+00       7.708336923276e-02 
       3.737050946397e+00       7.673720906250e-02 
       3.754528139661e+00       7.639154129148e-02 
       3.772130784474e+00       7.604596378764e-02 
       3.789863167866e+00       7.570049948378e-02 
       3.807729771712e+00       7.535515784818e-02 
       3.825735284399e+00       7.500980196998e-02 
       3.843884613357e+00       7.466497823369e-02 
       3.862182898555e+00       7.432018111844e-02 
       3.880635527041e+00       7.397505257748e-02 
       3.899248148626e+00       7.363023556337e-02 
       3.918026692826e+00       7.328532859159e-02 
       3.936977387170e+00       7.294073312207e-02 
       3.956106777023e+00       7.259617167048e-02 
       3.975421747071e+00       7.225149053323e-02 
       3.994929544623e+00       7.190682821827e-02 
       4.014637804939e+00       7.156216321830e-02 
       4.034554578778e+00       7.121774042862e-02 
       4.054688362409e+00       7.087272122645e-02 
       4.075048130350e+00       7.052780034385e-02 
       4.095643371136e+00       7.018282811004e-02 
       4.116484126449e+00       6.983735398676e-02 
       4.137581034005e+00       6.949220255224e-02 
       4.158945374614e+00       6.914633616005e-02 
       4.180589123924e+00       6.880065432738e-02 
       4.202525009394e+00       6.845413631576e-02 
       4.224766573158e+00       6.810749755772e-02 
       4.247328241480e+00       6.776042512381e-02 
       4.270225401680e+00       6.741296250580e-02 
       4.293474487462e+00       6.706485988173e-02 
       4.317093073771e+00       6.671613977183e-02 
       4.341099982471e+00       6.636680635459e-02 
       4.365515400316e+00       6.601673189912e-02 
       4.390361010958e+00       6.566599230760e-02 
       4.415660142993e+00       6.531419855362e-02 
       4.441437936414e+00       6.496168258992e-02 
       4.467721530220e+00       6.460781944003e-02 
       4.494540274434e+00       6.425304499579e-02 
       4.521925970343e+00       6.389671972799e-02 
       4.549913143523e+00       6.353932646796e-02 
       4.578539355003e+00       6.318019668757e-02 
       4.607845557010e+00       6.281963578595e-02 
       4.637876500983e+00       6.245718706162e-02 
       4.668681207086e+00       6.209302130255e-02 
       4.700313506361e+00       6.172658378129e-02 
       4.732832669046e+00       6.135784696473e-02 
       4.766304135446e+00       6.098666188403e-02 
       4.800800369442e+00       6.061266889555e-02 
       4.836401859251e+00       6.023588201504e-02 
       4.873198295756e+00       5.985564491465e-02 
       4.911289965952e+00       5.947195083766e-02 
       4.950789408175e+00       5.908414624018e-02 
       4.991823387332e+00       5.869217616519e-02 
       5.034535263111e+00       5.829529209037e-02 
       5.079087842907e+00       5.789314034129e-02 
       5.125666835128e+00       5.748501911828e-02 
       5.174485049011e+00       5.707042546068e-02 
       5.225787525621e+00       5.664833088173e-02 
       5.279857833017e+00       5.621791994235e-02 
       5.337025818075e+00       5.577806026419e-02 
       5.397677178416e+00       5.532738498137e-02 
       5.462265297630e+00       5.486389151866e-02 
       5.531325866203e+00       5.438587370838e-02 
       5.605494865622e+00       5.389057263035e-02 
       5.685530471887e+00       5.337484908417e-02 
       5.772339229054e+00       5.283432009041e-02 
       5.867006242171e+00       5.226320540343e-02 
       5.970827749963e+00       5.165472138511e-02 
       6.085341587643e+00       5.099892825543e-02 
       6.212345725611e+00       5.028275332222e-02 
       6.353886151949e+00       4.948931608815e-02 
       6.512182833832e+00       4.859625255978e-02 
       6.689450791767e+00       4.757557970065e-02 
       6.887577328103e+00       4.639504462463e-02 
       7.107663988185e+00       4.502205434002e-02 
       7.349552136936e+00       4.343219390851e-02 
       7.611573092420e+00       4.162040530159e-02 
       7.890746621448e+00       3.961025899381e-02 
       8.183403423571e+00       3.745596981151e-02 
       8.485921159766e+00       3.523504842809e-02 
       8.795240513285e+00       3.303408732869e-02 
       9.109050981011e+00       3.093500663231e-02 
       9.425738031739e+00       2.900413592324e-02 
       9.744230649554e+00       2.728660832168e-02 
       1.006384193463e+01       2.580489694718e-02 
       1.038414065850e+01       2.456020842801e-02 
       1.070485968492e+01       2.353624720661e-02 
       1.102583488465e+01       2.270309151129e-02 
       1.134696592338e+01       2.202137755519e-02 
       1.166819165399e+01       2.144713976594e-02 
       1.198947488113e+01       2.093525015448e-02 
       1.231079300493e+01       2.044378708241e-02 
       1.263213230320e+01       1.993746000017e-02 
       1.295348444761e+01       1.939041810275e-02 
       1.327484438480e+01       1.878806012878e-02 
       1.359620904901e+01       1.812738942118e-02 
       1.391757658048e+01       1.741582894397e-02 
       1.423894585112e+01       1.666905321804e-02 
       1.456031617667e+01       1.590800664684e-02 
       1.488168714208e+01       1.515546224947e-02 
       1.520305849562e+01       1.443324390633e-02 
       1.552443008459e+01       1.376030932367e-02 
       1.584580181637e+01       1.315018605139e-02 
       1.616717363480e+01       1.261097063971e-02 
       1.648854550580e+01       1.214482444248e-02 
       1.680991740869e+01       1.174888264015e-02 
