# dimensionless total [l(l+1)/2pi] C_l's
# for l=2 to 3000, i.e. number of multipoles equal to 2999
#
# -> if you prefer output in CAMB/HealPix/LensPix units/order, set 'format' to 'camb' in input file
# -> if you don't want to see such a header, set 'headers' to 'no' in input file
# -> for CMB lensing (phi), these are C_l^phi-phi for the lensing potential.
#    Remember the conversion factors:
#    C_l^dd (deflection) = l(l+1) C_l^phi-phi
#    C_l^gg (shear/convergence) = 1/4 (l(l+1))^2 C_l^phi-phi
#
# 1:l     2:TT                     3:EE                     4:TE                     5:BB                     6:phiphi                 7:TPhi                   8:Ephi               
    2       5.905326008455e-10       3.380873331448e-15       8.130422172214e-13       0.000000000000e+00       2.301580174302e-08      -2.963466007461e-09      -2.237015123889e-12 
    3       4.279960886115e-10       6.770829049608e-15       8.089412796948e-13       0.000000000000e+00       1.455530589726e-08      -1.922648837399e-09      -1.868690099398e-12 
    4       3.410733974493e-10       1.031385627875e-14       7.849662235394e-13       0.000000000000e+00       1.011991162937e-08      -1.378364684847e-09      -1.604093905154e-12 
    5       2.874337022594e-10       1.301772402476e-14       7.424856529736e-13       0.000000000000e+00       7.502870128236e-09      -1.051092645235e-09      -1.373800659100e-12 
    6       2.511091349377e-10       1.427716393557e-14       6.842870092358e-13       0.000000000000e+00       5.826094479862e-09      -8.350956986092e-10      -1.155351538535e-12 
    7       2.249996599419e-10       1.400138367018e-14       6.176905077088e-13       0.000000000000e+00       4.685032118569e-09      -6.833925294604e-10      -9.497877746520e-13 
    8       2.055080572232e-10       1.247458496518e-14       5.482770223067e-13       0.000000000000e+00       3.868640751989e-09      -5.718132715737e-10      -7.600219854543e-13 
    9       1.905344140834e-10       1.018585165138e-14       4.800879141488e-13       0.000000000000e+00       3.258481873798e-09      -4.867624951933e-10      -5.884250805633e-13 
   10       1.788243953323e-10       7.661836467666e-15       4.157795117458e-13       0.000000000000e+00       2.785120451538e-09      -4.200427212154e-10      -4.366531623251e-13 
   11       1.695473598880e-10       5.339518758480e-15       3.569444821543e-13       0.000000000000e+00       2.075141828760e-09      -3.473654921918e-10      -3.064075275023e-13 
   12       1.620853667985e-10       3.496884784393e-15       3.046392968012e-13       0.000000000000e+00       1.794996940103e-09      -3.047060310865e-10      -1.971790278286e-13 
   13       1.560864109915e-10       2.239494723498e-15       2.594850384952e-13       0.000000000000e+00       1.567586319058e-09      -2.693660932091e-10      -1.079964825134e-13 
   14       1.512761291309e-10       1.529171838349e-15       2.217943210371e-13       0.000000000000e+00       1.380357049064e-09      -2.399142157714e-10      -3.882012285785e-14 
   15       1.473691296080e-10       1.236065325107e-15       1.916985226831e-13       0.000000000000e+00       1.224309915426e-09      -2.148963804123e-10       1.242411715284e-14 
   16       1.442182257405e-10       1.195604249269e-15       1.690100649890e-13       0.000000000000e+00       1.092846412328e-09      -1.935755218036e-10       4.687013639914e-14 
   17       1.417115355531e-10       1.256085827785e-15       1.532373836956e-13       0.000000000000e+00       9.810444620958e-10      -1.750904598831e-10       6.710118165595e-14 
   18       1.396888859701e-10       1.304557439705e-15       1.437204660740e-13       0.000000000000e+00       8.846959850754e-10      -1.590663050431e-10       7.524147455057e-14 
   19       1.381239037405e-10       1.299372557682e-15       1.398897743171e-13       0.000000000000e+00       8.023023926156e-10      -1.452573752425e-10       7.338247242192e-14 
   20       1.369154230145e-10       1.222959777467e-15       1.405903472540e-13       0.000000000000e+00       7.302036432617e-10      -1.329921995321e-10       6.470530779998e-14 
   21       1.360276973764e-10       1.100979233714e-15       1.449404631954e-13       0.000000000000e+00       6.671199787112e-10      -1.221023250163e-10       5.126230876648e-14 
   22       1.353852751435e-10       9.788929457408e-16       1.518357378205e-13       0.000000000000e+00       6.114842597740e-10      -1.124097652587e-10       3.514109814374e-14 
   23       1.349772271544e-10       8.879890018252e-16       1.604407829788e-13       0.000000000000e+00       5.624357004745e-10      -1.038012577611e-10       1.803819149268e-14 
   24       1.347717950148e-10       8.533423666656e-16       1.698498730149e-13       0.000000000000e+00       5.187185919904e-10      -9.607568944956e-11       1.638676228663e-15 
   25       1.347501914485e-10       8.768797178891e-16       1.794143486291e-13       0.000000000000e+00       4.797561834743e-10      -8.912544757145e-11      -1.301935346601e-14 
   26       1.348724849683e-10       9.484906244966e-16       1.885253610157e-13       0.000000000000e+00       4.447901547945e-10      -8.281063564304e-11      -2.514343480932e-14 
   27       1.351342646496e-10       1.048198485708e-15       1.968607295255e-13       0.000000000000e+00       4.133574066770e-10      -7.708506492877e-11      -3.433161952115e-14 
   28       1.355241527910e-10       1.151976419671e-15       2.042003084133e-13       0.000000000000e+00       3.848699191915e-10      -7.189055458948e-11      -4.041003376789e-14 
   29       1.360408645350e-10       1.250273265442e-15       2.104780827191e-13       0.000000000000e+00       3.591558926924e-10      -6.719733994516e-11      -4.344036473855e-14 
   30       1.366638094250e-10       1.336983926291e-15       2.156987309862e-13       0.000000000000e+00       3.359123239664e-10      -6.293499023422e-11      -4.369801948297e-14 
   31       1.373557232785e-10       1.407758188231e-15       2.199167870344e-13       0.000000000000e+00       3.146316530758e-10      -5.899737119604e-11      -4.162336540461e-14 
   32       1.381190849586e-10       1.470250299832e-15       2.232813394928e-13       0.000000000000e+00       2.951878938087e-10      -5.536947475230e-11      -3.765941207828e-14 
   33       1.389570193905e-10       1.538035717108e-15       2.260159006419e-13       0.000000000000e+00       2.774295192091e-10      -5.204104623503e-11      -3.238019926871e-14 
   34       1.398619938086e-10       1.625404910612e-15       2.283782046506e-13       0.000000000000e+00       2.610906102914e-10      -4.898062865877e-11      -2.645759453042e-14 
   35       1.408336425741e-10       1.737563202309e-15       2.305435835371e-13       0.000000000000e+00       2.460771572527e-10      -4.617061939783e-11      -2.034920263128e-14 
   36       1.418647167419e-10       1.877089675035e-15       2.326848116364e-13       0.000000000000e+00       2.322580856822e-10      -4.358026214045e-11      -1.451461328218e-14 
   37       1.429414308585e-10       2.045690755273e-15       2.349713982326e-13       0.000000000000e+00       2.194410589686e-10      -4.116763376822e-11      -9.421205298891e-15 
   38       1.440652694821e-10       2.241425444192e-15       2.374565261717e-13       0.000000000000e+00       2.075870332992e-10      -3.892575546530e-11      -5.262830029227e-15 
   39       1.452367623975e-10       2.460455917067e-15       2.401522452483e-13       0.000000000000e+00       1.966533261717e-10      -3.684923016319e-11      -2.149937842780e-15 
   40       1.464486644933e-10       2.697679056090e-15       2.430581125570e-13       0.000000000000e+00       1.865285488367e-10      -3.492053282197e-11      -1.831226874278e-16 
   41       1.476901740022e-10       2.948117401127e-15       2.461452268887e-13       0.000000000000e+00       1.770702589104e-10      -3.311633413339e-11       5.835414340022e-16 
   42       1.489630840540e-10       3.211844836021e-15       2.493051767251e-13       0.000000000000e+00       1.682469824774e-10      -3.143151072707e-11       2.634500854423e-16 
   43       1.502695969607e-10       3.490518566159e-15       2.523823056496e-13       0.000000000000e+00       1.600323966912e-10      -2.986115637717e-11      -9.417307478232e-16 
   44       1.516073750288e-10       3.786054609134e-15       2.551847008730e-13       0.000000000000e+00       1.523628034933e-10      -2.839331855208e-11      -2.770151535002e-15 
   45       1.529719675190e-10       4.100093856037e-15       2.575086374327e-13       0.000000000000e+00       1.451591979185e-10      -2.701314750746e-11      -4.937555056389e-15 
   46       1.543659587522e-10       4.432174638158e-15       2.592260422803e-13       0.000000000000e+00       1.384083139418e-10      -2.571813817064e-11      -7.273123811481e-15 
   47       1.557918316325e-10       4.781039285695e-15       2.602192682626e-13       0.000000000000e+00       1.321007743690e-10      -2.450649543814e-11      -9.617711079749e-15 
   48       1.572490987394e-10       5.145119386381e-15       2.603558823709e-13       0.000000000000e+00       1.262066883211e-10      -2.337254280424e-11      -1.178434218721e-14 
   49       1.587340413804e-10       5.522519138490e-15       2.594879071555e-13       0.000000000000e+00       1.206741333605e-10      -2.230643524743e-11      -1.355676978767e-14 
   50       1.602416776878e-10       5.911607834875e-15       2.574831614641e-13       0.000000000000e+00       1.154444849848e-10      -2.129711276613e-11      -1.473759319039e-14 
   51       1.617729021020e-10       6.313025530975e-15       2.543310716156e-13       0.000000000000e+00       1.105068320143e-10      -2.034277222090e-11      -1.531136627555e-14 
   52       1.633288327553e-10       6.728193017373e-15       2.500642702107e-13       0.000000000000e+00       1.058557079080e-10      -1.944274166200e-11      -1.532326609368e-14 
   53       1.649085994543e-10       7.158762004011e-15       2.447297411952e-13       0.000000000000e+00       1.014748264877e-10      -1.859435669461e-11      -1.483426502863e-14 
   54       1.665091876278e-10       7.606627138187e-15       2.383895718303e-13       0.000000000000e+00       9.733635688137e-11      -1.779282586635e-11      -1.392201850453e-14 
   55       1.681269999066e-10       8.073640684897e-15       2.311115664218e-13       0.000000000000e+00       9.340924492595e-11      -1.703270976745e-11      -1.267662733112e-14 
   56       1.697633526409e-10       8.560646033626e-15       2.229366342609e-13       0.000000000000e+00       8.968825918787e-11      -1.631309699954e-11      -1.118465831169e-14 
   57       1.714200714992e-10       9.068225144368e-15       2.139046172829e-13       0.000000000000e+00       8.617089060391e-11      -1.563347824441e-11      -9.542708899605e-15 
   58       1.730978062782e-10       9.596975273374e-15       2.040640677050e-13       0.000000000000e+00       8.284857372566e-11      -1.499217502825e-11      -7.862857808239e-15 
   59       1.747959417715e-10       1.014750940657e-14       1.934726050006e-13       0.000000000000e+00       7.970631412223e-11      -1.438626798117e-11      -6.273353028567e-15 
   60       1.765125086386e-10       1.072045669297e-14       1.821972728730e-13       0.000000000000e+00       7.672231578310e-11      -1.381152509667e-11      -4.919299846683e-15 
   61       1.782452383025e-10       1.131633267724e-14       1.702948454220e-13       0.000000000000e+00       7.387395405356e-11      -1.326354120033e-11      -3.929824764864e-15 
   62       1.799952059760e-10       1.193511497954e-14       1.577467724695e-13       0.000000000000e+00       7.115810403754e-11      -1.274161753094e-11      -3.309398024051e-15 
   63       1.817638509080e-10       1.257657270811e-14       1.445101990159e-13       0.000000000000e+00       6.857473470844e-11      -1.224562963125e-11      -3.023227138553e-15 
   64       1.835518527275e-10       1.324038463117e-14       1.305364538271e-13       0.000000000000e+00       6.612079815172e-11      -1.177486033107e-11      -3.028260199127e-15 
   65       1.853590786108e-10       1.392613547917e-14       1.157707702115e-13       0.000000000000e+00       6.379005830664e-11      -1.132796643750e-11      -3.272810196289e-15 
   66       1.871845304502e-10       1.463331224704e-14       1.001520067971e-13       0.000000000000e+00       6.157291970799e-11      -1.090294542523e-11      -3.696179343617e-15 
   67       1.890262920218e-10       1.536130049641e-14       8.361236830785e-14       0.000000000000e+00       5.945625622786e-11      -1.049710212673e-11      -4.228283401066e-15 
   68       1.908823789955e-10       1.610953731580e-14       6.608785556034e-14       0.000000000000e+00       5.742688223824e-11      -1.010775571127e-11      -4.800171567447e-15 
   69       1.927536070610e-10       1.687801445735e-14       4.755269841961e-14       0.000000000000e+00       5.548316565582e-11      -9.734601427032e-12      -5.378901174620e-15 
   70       1.946412127204e-10       1.766687097446e-14       2.799143031484e-14       0.000000000000e+00       5.362547116171e-11      -9.377769769806e-12      -5.939087110675e-15 
   71       1.965459726588e-10       1.847624588752e-14       7.388771612140e-15       0.000000000000e+00       5.185264928108e-11      -9.037114417443e-12      -6.452536215991e-15 
   72       1.984681740033e-10       1.930627849272e-14      -1.427037520400e-14       0.000000000000e+00       5.016195828142e-11      -8.712197853324e-12      -6.888150265609e-15 
   73       2.004075845813e-10       2.015710867094e-14      -3.700093034914e-14       0.000000000000e+00       4.854898607084e-11      -8.402276989821e-12      -7.211828951594e-15 
   74       2.023634231794e-10       2.102887719655e-14      -6.081764155739e-14       0.000000000000e+00       4.700757209635e-11      -8.106288791759e-12      -7.386372865402e-15 
   75       2.043343298022e-10       2.192172604627e-14      -8.573508889991e-14       0.000000000000e+00       4.552972924211e-11      -7.822835899884e-12      -7.371386480245e-15 
   76       2.063189734240e-10       2.283575602061e-14      -1.117612141211e-13       0.000000000000e+00       4.410761356298e-11      -7.550531971399e-12      -7.136658640770e-15 
   77       2.083180689369e-10       2.377089000375e-14      -1.388765357512e-13       0.000000000000e+00       4.274002081164e-11      -7.289142184543e-12      -6.705335437327e-15 
   78       2.103326756780e-10       2.472698521369e-14      -1.670511349139e-13       0.000000000000e+00       4.142693819344e-11      -7.038625557524e-12      -6.118480429065e-15 
   79       2.123635761655e-10       2.570387312021e-14      -1.962506686667e-13       0.000000000000e+00       4.016756610319e-11      -6.798786794860e-12      -5.422472010322e-15 
   80       2.144112594297e-10       2.670135887835e-14      -2.264362420343e-13       0.000000000000e+00       3.896028201596e-11      -6.569269287130e-12      -4.669182760189e-15 
   81       2.164759043444e-10       2.771922076191e-14      -2.575642800419e-13       0.000000000000e+00       3.780260437788e-11      -6.349548110732e-12      -3.916158792087e-15 
   82       2.185573629575e-10       2.875720959699e-14      -2.895863997490e-13       0.000000000000e+00       3.669115649691e-11      -6.138923027637e-12      -3.226799103330e-15 
   83       2.206551438220e-10       2.981504819542e-14      -3.224492822826e-13       0.000000000000e+00       3.562163043372e-11      -5.936511485138e-12      -2.670534924698e-15 
   84       2.227687495979e-10       3.089245581837e-14      -3.561069683656e-13       0.000000000000e+00       3.458982958726e-11      -5.741462114089e-12      -2.306587960576e-15 
   85       2.248987906754e-10       3.198922746763e-14      -3.905603672143e-13       0.000000000000e+00       3.359507413594e-11      -5.553651223801e-12      -2.131758579864e-15 
   86       2.270460264629e-10       3.310516676159e-14      -4.258240932122e-13       0.000000000000e+00       3.263729656691e-11      -5.373089473490e-12      -2.124270597428e-15 
   87       2.292110169746e-10       3.424006193025e-14      -4.619147044014e-13       0.000000000000e+00       3.171599546134e-11      -5.199708394042e-12      -2.259327589731e-15 
   88       2.313941121150e-10       3.539368566935e-14      -4.988507833148e-13       0.000000000000e+00       3.083021751452e-11      -5.033357093625e-12      -2.509016259367e-15 
   89       2.335954409642e-10       3.656579499461e-14      -5.366530178073e-13       0.000000000000e+00       2.997853955599e-11      -4.873798963300e-12      -2.842209799602e-15 
   90       2.358149010633e-10       3.775613109582e-14      -5.753442818880e-13       0.000000000000e+00       2.915905056967e-11      -4.720708382630e-12      -3.224471258907e-15 
   91       2.380521476991e-10       3.896441919111e-14      -6.149497165518e-13       0.000000000000e+00       2.836933371402e-11      -4.573667425290e-12      -3.617956905500e-15 
   92       2.403065831898e-10       4.019036838103e-14      -6.554968106109e-13       0.000000000000e+00       2.760644834211e-11      -4.432162564682e-12      -3.981319591877e-15 
   93       2.425776636952e-10       4.143366899422e-14      -6.970082166799e-13       0.000000000000e+00       2.686762670670e-11      -4.295703165436e-12      -4.278374245569e-15 
   94       2.448658957085e-10       4.269398448426e-14      -7.394787876019e-13       0.000000000000e+00       2.615252299162e-11      -4.164204499123e-12      -4.505795074893e-15 
   95       2.471719703235e-10       4.397095803881e-14      -7.828952196789e-13       0.000000000000e+00       2.546127086582e-11      -4.037656511182e-12      -4.669424738673e-15 
   96       2.494964527924e-10       4.526421480172e-14      -8.272429911459e-13       0.000000000000e+00       2.479379087750e-11      -3.916005566882e-12      -4.775906712663e-15 
   97       2.518397761689e-10       4.657336169278e-14      -8.725063432796e-13       0.000000000000e+00       2.414978228469e-11      -3.799152828670e-12      -4.832708930357e-15 
   98       2.542022349522e-10       4.789798722747e-14      -9.186682615069e-13       0.000000000000e+00       2.352871488567e-11      -3.686952633519e-12      -4.848147423788e-15 
   99       2.565839787307e-10       4.923766133666e-14      -9.657104565127e-13       0.000000000000e+00       2.292982084949e-11      -3.579210870267e-12      -4.831409964343e-15 
  100       2.589850058260e-10       5.059193518638e-14      -1.013613345349e-12       0.000000000000e+00       2.235208654647e-11      -3.475683356969e-12      -4.792579703565e-15 
  101       2.614051569364e-10       5.196034099754e-14      -1.062356032542e-12       0.000000000000e+00       2.179424437867e-11      -3.376074218240e-12      -4.742658813956e-15 
  102       2.638441087806e-10       5.334239186570e-14      -1.111916291203e-12       0.000000000000e+00       2.125476461039e-11      -3.280034262600e-12      -4.693592129793e-15 
  103       2.663013677416e-10       5.473758158077e-14      -1.162270544133e-12       0.000000000000e+00       2.073184719869e-11      -3.187159359822e-12      -4.658290787925e-15 
  104       2.687764715852e-10       5.614537267964e-14      -1.213395133743e-12       0.000000000000e+00       2.022383036861e-11      -3.097078460326e-12      -4.647892440521e-15 
  105       2.712696393384e-10       5.756515915429e-14      -1.265270367873e-12       0.000000000000e+00       1.973049679262e-11      -3.009734689766e-12      -4.663069468914e-15 
  106       2.737811977586e-10       5.899629834657e-14      -1.317876987827e-12       0.000000000000e+00       1.925192944813e-11      -2.925139377905e-12      -4.701585243421e-15 
  107       2.763113770784e-10       6.043812195965e-14      -1.371194923695e-12       0.000000000000e+00       1.878810708244e-11      -2.843285177500e-12      -4.760946057549e-15 
