# Matter power spectrum P(k) at redshift z=0
# for k=0.000782009 to 164.874 h/Mpc,
# number of wavenumbers equal to 514
#    1:k (h/Mpc)              2:P (Mpc/h)^3        
       7.820092573081e-04       1.738667550906e-04 
       6.176829159159e-03       1.269190277834e-03 
       1.871765400669e-02       3.683677504215e-03 
       3.155028494658e-02       6.076212250318e-03 
       4.440694147474e-02       8.420782196550e-03 
       5.727029570978e-02       1.072268103434e-02 
       7.013655697758e-02       1.298532287049e-02 
       8.300443644390e-02       1.521074890165e-02 
       9.587338082302e-02       1.740022495290e-02 
       1.087431158134e-01       1.955459081317e-02 
       1.216134917955e-01       2.167443394910e-02 
       1.344844217035e-01       2.376027453024e-02 
       1.473558526910e-01       2.581225229903e-02 
       1.602277519394e-01       2.783095452103e-02 
       1.731000990120e-01       2.981677875522e-02 
       1.859728814833e-01       3.177003255004e-02 
       1.988460923185e-01       3.369102589770e-02 
       2.117197282363e-01       3.558008744651e-02 
       2.245937886512e-01       3.743753850346e-02 
       2.374682749696e-01       3.926370315059e-02 
       2.503431901092e-01       4.105892607112e-02 
       2.632185381637e-01       4.282353596304e-02 
       2.760943241648e-01       4.455789220322e-02 
       2.889705539096e-01       4.626234688758e-02 
       3.018472338343e-01       4.793725300332e-02 
       3.147243709202e-01       4.958298188370e-02 
       3.276019726236e-01       5.119990008776e-02 
       3.404800468227e-01       5.278837878023e-02 
       3.533586017766e-01       5.434895063363e-02 
       3.662376460948e-01       5.588175436258e-02 
       3.791171887135e-01       5.738707931009e-02 
       3.919972388776e-01       5.886542253902e-02 
       4.048778061269e-01       6.031716376284e-02 
       4.177589002856e-01       6.174256256795e-02 
       4.306405314554e-01       6.314209299897e-02 
       4.435227100095e-01       6.451602407801e-02 
       4.564054465891e-01       6.586472743346e-02 
       4.692887521014e-01       6.718852926449e-02 
       4.821726377184e-01       6.848776139181e-02 
       4.950571148772e-01       6.976273492999e-02 
       5.079421952802e-01       7.101379714479e-02 
       5.208278908970e-01       7.224130119720e-02 
       5.337142139666e-01       7.344550588986e-02 
       5.466011769999e-01       7.462676178892e-02 
       5.594887927825e-01       7.578545989191e-02 
       5.723770743785e-01       7.692171101559e-02 
       5.852660351344e-01       7.803599314775e-02 
       5.981556886830e-01       7.912856614553e-02 
       6.110460489480e-01       8.019971999291e-02 
       6.239371301485e-01       8.124972734497e-02 
       6.368289468045e-01       8.227886612649e-02 
       6.497215137416e-01       8.328741111666e-02 
       6.626148460964e-01       8.427571740387e-02 
       6.755089593228e-01       8.524390460135e-02 
       6.884038691971e-01       8.619241346253e-02 
       7.012995918245e-01       8.712135903481e-02 
       7.141961436451e-01       8.803109011619e-02 
       7.270935414405e-01       8.892174756260e-02 
       7.399918023405e-01       8.979370629705e-02 
       7.528909438297e-01       9.064719830350e-02 
       7.657909837545e-01       9.148238811522e-02 
       7.786919403305e-01       9.229959221662e-02 
       7.915938321496e-01       9.309899894596e-02 
       8.044966781877e-01       9.388084043559e-02 
       8.174004978126e-01       9.464537613023e-02 
       8.303053107913e-01       9.539277924692e-02 
       8.432111372988e-01       9.612336564238e-02 
       8.561179979261e-01       9.683728274605e-02 
       8.690259136887e-01       9.753472305146e-02 
       8.819349060352e-01       9.821596679837e-02 
       8.948449968564e-01       9.888112850473e-02 
       9.077562084941e-01       9.953043858461e-02 
       9.206685637508e-01       1.001641923591e-01 
       9.335820858987e-01       1.007824691684e-01 
       9.464967986898e-01       1.013855547825e-01 
       9.594127263659e-01       1.019735151433e-01 
       9.723298936682e-01       1.025467016115e-01 
       9.852483258483e-01       1.031051954606e-01 
       9.981680486785e-01       1.036491865862e-01 
       1.011089088463e+00       1.041788509555e-01 
       1.024011472048e+00       1.046944044596e-01 
       1.036935226834e+00       1.051960219891e-01 
       1.049860380787e+00       1.056838885081e-01 
       1.062786962452e+00       1.061581175297e-01 
       1.075715000961e+00       1.066189636597e-01 
       1.088644526050e+00       1.070665210941e-01 
       1.101575568068e+00       1.075009765311e-01 
       1.114508157992e+00       1.079225041304e-01 
       1.127442327442e+00       1.083312421742e-01 
       1.140378108687e+00       1.087273539921e-01 
       1.153315534670e+00       1.091110779798e-01 
       1.166254639012e+00       1.094824224833e-01 
       1.179195456031e+00       1.098415958064e-01 
       1.192138020759e+00       1.101888151346e-01 
       1.205082368950e+00       1.105241555607e-01 
       1.218028537104e+00       1.108477924657e-01 
       1.230976562476e+00       1.111599180620e-01 
       1.243926483095e+00       1.114605593151e-01 
       1.256878337781e+00       1.117499956030e-01 
       1.269832166160e+00       1.120281733615e-01 
       1.282788008682e+00       1.122954555325e-01 
       1.295745906640e+00       1.125519140519e-01 
       1.308705902184e+00       1.127975525847e-01 
       1.321668038345e+00       1.130327070517e-01 
       1.334632359050e+00       1.132574427090e-01 
       1.347598909142e+00       1.134717767150e-01 
       1.360567734399e+00       1.136759089593e-01 
       1.373538881556e+00       1.138700894833e-01 
       1.386512398325e+00       1.140541855443e-01 
       1.399488333414e+00       1.142285783557e-01 
       1.412466736553e+00       1.143932156535e-01 
       1.425447658509e+00       1.145484316723e-01 
       1.438431151117e+00       1.146940737804e-01 
       1.451417267295e+00       1.148304236630e-01 
       1.464406061076e+00       1.149576148969e-01 
       1.477397587623e+00       1.150758422868e-01 
       1.490391903260e+00       1.151848104901e-01 
       1.503389065497e+00       1.152852049507e-01 
       1.516389133052e+00       1.153767787466e-01 
       1.529392165881e+00       1.154598403043e-01 
       1.542398225204e+00       1.155343928095e-01 
       1.555407373533e+00       1.156005951870e-01 
       1.568419674699e+00       1.156585993679e-01 
       1.581435193883e+00       1.157083665937e-01 
       1.594453997645e+00       1.157501229018e-01 
       1.607476153953e+00       1.157839116905e-01 
       1.620501732217e+00       1.158097823587e-01 
       1.633530803319e+00       1.158281321635e-01 
       1.646563439646e+00       1.158388415340e-01 
       1.659599715122e+00       1.158420213969e-01 
       1.672639705246e+00       1.158378016275e-01 
       1.685683487125e+00       1.158261923460e-01 
       1.698731139508e+00       1.158075244164e-01 
       1.711782742827e+00       1.157817079175e-01 
       1.724838379229e+00       1.157487106246e-01 
       1.737898132622e+00       1.157089880636e-01 
       1.750962088709e+00       1.156626223120e-01 
       1.764030335029e+00       1.156094483791e-01 
       1.777102961003e+00       1.155496700167e-01 
       1.790180057969e+00       1.154833900270e-01 
       1.803261719236e+00       1.154108455051e-01 
       1.816348040117e+00       1.153319233580e-01 
       1.829439117984e+00       1.152466527699e-01 
       1.842535052312e+00       1.151555263101e-01 
       1.855635944726e+00       1.150580743716e-01 
       1.868741899053e+00       1.149549147274e-01 
       1.881853021368e+00       1.148457254158e-01 
       1.894969420053e+00       1.147308743390e-01 
       1.908091205845e+00       1.146106268792e-01 
       1.921218491892e+00       1.144845917385e-01 
       1.934351393810e+00       1.143531793957e-01 
       1.947490029740e+00       1.142162793496e-01 
       1.960634520407e+00       1.140741250379e-01 
       1.973784989181e+00       1.139267693381e-01 
       1.986941562139e+00       1.137743038024e-01 
       2.000104368128e+00       1.136167567993e-01 
       2.013273538832e+00       1.134543507519e-01 
       2.026449208840e+00       1.132868048830e-01 
       2.039631515712e+00       1.131147652429e-01 
       2.052820600053e+00       1.129380186339e-01 
       2.066016605584e+00       1.127564902174e-01 
       2.079219679218e+00       1.125705657174e-01 
       2.092429971135e+00       1.123801582429e-01 
       2.105647634866e+00       1.121852340802e-01 
       2.118872827367e+00       1.119860948909e-01 
       2.132105709108e+00       1.117827521305e-01 
       2.145346444154e+00       1.115751620956e-01 
       2.158595200260e+00       1.113637046061e-01 
       2.171852148955e+00       1.111478661409e-01 
       2.185117465636e+00       1.109285465717e-01 
       2.198391329668e+00       1.107051183286e-01 
       2.211673924479e+00       1.104781717859e-01 
       2.224965437661e+00       1.102471957622e-01 
       2.238266061077e+00       1.100128398174e-01 
       2.251575990964e+00       1.097747167986e-01 
       2.264895428047e+00       1.095334564250e-01 
       2.278224577653e+00       1.092885869977e-01 
       2.291563649823e+00       1.090403968589e-01 
       2.304912859438e+00       1.087888248393e-01 
       2.318272426339e+00       1.085348751475e-01 
       2.331642575457e+00       1.082764984743e-01 
       2.345023536942e+00       1.080156321900e-01 
       2.358415546302e+00       1.077518676778e-01 
       2.371818844538e+00       1.074850705011e-01 
       2.385233678291e+00       1.072154109218e-01 
       2.398660299990e+00       1.069429275112e-01 
       2.412098968002e+00       1.066677311105e-01 
       2.425549946794e+00       1.063902640774e-01 
       2.439013507092e+00       1.061094767373e-01 
       2.452489926047e+00       1.058263512663e-01 
       2.465979487414e+00       1.055410297061e-01 
       2.479482481724e+00       1.052532731872e-01 
       2.492999206473e+00       1.049625602604e-01 
       2.506529966305e+00       1.046701262769e-01 
       2.520075073219e+00       1.043753662647e-01 
       2.533634846761e+00       1.040782765434e-01 
       2.547209614238e+00       1.037793429183e-01 
       2.560799710935e+00       1.034778278143e-01 
       2.574405480338e+00       1.031747881352e-01 
       2.588027274360e+00       1.028696785751e-01 
       2.601665453587e+00       1.025623879074e-01 
       2.615320387520e+00       1.022534227862e-01 
       2.628992454832e+00       1.019426818551e-01 
       2.642682043631e+00       1.016305446452e-01 
       2.656389551734e+00       1.013159819571e-01 
       2.670115386947e+00       1.010002565187e-01 
       2.683859967365e+00       1.006825080764e-01 
       2.697623721664e+00       1.003632437854e-01 
       2.711407089425e+00       1.000431289602e-01 
       2.725210521454e+00       9.972112106571e-02 
       2.739034480119e+00       9.939764066637e-02 
       2.752879439699e+00       9.907263347863e-02 
       2.766745886751e+00       9.874692860777e-02 
       2.780634320478e+00       9.841962704129e-02 
       2.794545253122e+00       9.809096487430e-02 
       2.808479210371e+00       9.776132660066e-02 
       2.822436731774e+00       9.743065056900e-02 
       2.836418371176e+00       9.709865417112e-02 
       2.850424697176e+00       9.676585370551e-02 
       2.864456293591e+00       9.643162557053e-02 
       2.878513759947e+00       9.609647547840e-02 
       2.892597711985e+00       9.576082642749e-02 
       2.906708782188e+00       9.542402165026e-02 
       2.920847620335e+00       9.508665970039e-02 
       2.935014894063e+00       9.474807171510e-02 
       2.949211289468e+00       9.440889080424e-02 
       2.963437511723e+00       9.406913693145e-02 
       2.977694285718e+00       9.372860939875e-02 
       2.991982356734e+00       9.338702807817e-02 
       3.006302491143e+00       9.304541561618e-02 
       3.020655477135e+00       9.270274487506e-02 
       3.035042125479e+00       9.235974324808e-02 
       3.049463270317e+00       9.201617609551e-02 
       3.063919769989e+00       9.167195860839e-02 
       3.078412507903e+00       9.132761140362e-02 
       3.092942393428e+00       9.098251202099e-02 
       3.107510362847e+00       9.063678884469e-02 
       3.122117380335e+00       9.029143673115e-02 
       3.136764438994e+00       8.994531216683e-02 
       3.151452561930e+00       8.959863025067e-02 
       3.166182803377e+00       8.925191457620e-02 
       3.180956249883e+00       8.890480480339e-02 
       3.195774021547e+00       8.855757280557e-02 
       3.210637273310e+00       8.821014712869e-02 
       3.225547196317e+00       8.786245445220e-02 
       3.240505019343e+00       8.751461223412e-02 
       3.255512010283e+00       8.716650263052e-02 
       3.270569477727e+00       8.681831035433e-02 
       3.285678772602e+00       8.647046849812e-02 
       3.300841289910e+00       8.612185788898e-02 
       3.316058470542e+00       8.577344947298e-02 
       3.331331803195e+00       8.542511967894e-02 
       3.346662826389e+00       8.507695197112e-02 
       3.362053130582e+00       8.472810220590e-02 
       3.377504360409e+00       8.437948863940e-02 
       3.393018217037e+00       8.403136102444e-02 
       3.408596460644e+00       8.368273742302e-02 
       3.424240913042e+00       8.333448039207e-02 
       3.439953460442e+00       8.298621371694e-02 
       3.455736056379e+00       8.263786205302e-02 
       3.471590724795e+00       8.228963214614e-02 
       3.487519563313e+00       8.194152237607e-02 
       3.503524746685e+00       8.159366651964e-02 
       3.519608530461e+00       8.124575429620e-02 
       3.535773254865e+00       8.089794686888e-02 
       3.552021348909e+00       8.055057222428e-02 
       3.568355334756e+00       8.020299607318e-02 
       3.584777832358e+00       7.985556820245e-02 
       3.601291564378e+00       7.950830710089e-02 
       3.617899361428e+00       7.916142122064e-02 
       3.634604167641e+00       7.881440199976e-02 
       3.651409046605e+00       7.846776272210e-02 
       3.668317187689e+00       7.812113086920e-02 
       3.685331912789e+00       7.777483446541e-02 
       3.702456683527e+00       7.742855091366e-02 
       3.719695108947e+00       7.708288999385e-02 
       3.737050953743e+00       7.673677552961e-02 
       3.754528147059e+00       7.639107307187e-02 
       3.772130791926e+00       7.604541090830e-02 
       3.789863175373e+00       7.570004431446e-02 
       3.807729779277e+00       7.535457770050e-02 
       3.825735292024e+00       7.500932379488e-02 
       3.843884621044e+00       7.466448831972e-02 
       3.862182906306e+00       7.431975743989e-02 
       3.880635534858e+00       7.397455438301e-02 
       3.899248156512e+00       7.362985401838e-02 
       3.918026700783e+00       7.328464892403e-02 
       3.936977395200e+00       7.294032477285e-02 
       3.956106785130e+00       7.259569077770e-02 
       3.975421755258e+00       7.225101558832e-02 
       3.994929552893e+00       7.190635726967e-02 
       4.014637813295e+00       7.156164612924e-02 
       4.034554587224e+00       7.121728975723e-02 
       4.054688370949e+00       7.087237320442e-02 
       4.075048138987e+00       7.052737407010e-02 
       4.095643379874e+00       7.018229200782e-02 
       4.116484135293e+00       6.983678715997e-02 
       4.137581042959e+00       6.949173812110e-02 
       4.158945383684e+00       6.914572519611e-02 
       4.180589133114e+00       6.880019970852e-02 
       4.202525018711e+00       6.845367063207e-02 
       4.224766582606e+00       6.810698042694e-02 
       4.247328251066e+00       6.775979154680e-02 
       4.270225411411e+00       6.741248923163e-02 
       4.293474497345e+00       6.706437493916e-02 
       4.317093083813e+00       6.671563431117e-02 
       4.341099992681e+00       6.636623510183e-02 
       4.365515410704e+00       6.601612959165e-02 
       4.390361021532e+00       6.566527887448e-02 
       4.415660153763e+00       6.531378012004e-02 
       4.441437947391e+00       6.496115086501e-02 
       4.467721541418e+00       6.460719228933e-02 
       4.494540285863e+00       6.425258271951e-02 
       4.521925982019e+00       6.389613389719e-02 
       4.549913155460e+00       6.353892938032e-02 
       4.578539367218e+00       6.317976639194e-02 
       4.607845569521e+00       6.281922975503e-02 
       4.637876513810e+00       6.245670424637e-02 
       4.668681220250e+00       6.209253588151e-02 
       4.700313519887e+00       6.172607334199e-02 
       4.732832682959e+00       6.135748487393e-02 
       4.766304149775e+00       6.098635763137e-02 
       4.800800384220e+00       6.061223922178e-02 
       4.836401874513e+00       6.023545000340e-02 
       4.873198311542e+00       5.985528420943e-02 
       4.911289982308e+00       5.947166710754e-02 
       4.950789425150e+00       5.908383483752e-02 
       4.991823404983e+00       5.869181752746e-02 
       5.034535281503e+00       5.829508973598e-02 
       5.079087862113e+00       5.789284637213e-02 
       5.125666855231e+00       5.748473111558e-02 
       5.174485070108e+00       5.707011645157e-02 
       5.225787547823e+00       5.664799779396e-02 
       5.279857856452e+00       5.621755177830e-02 
       5.337025842894e+00       5.577759075421e-02 
       5.397677204795e+00       5.532707818260e-02 
       5.462265325776e+00       5.486342654624e-02 
       5.531325896362e+00       5.438533516972e-02 
       5.605494898086e+00       5.389021385424e-02 
       5.685530507005e+00       5.337448172096e-02 
       5.772339267244e+00       5.283384577992e-02 
       5.867006283934e+00       5.226264041293e-02 
       5.970827795893e+00       5.165433379352e-02 
       6.085341638444e+00       5.099857008006e-02 
       6.212345782096e+00       5.028245152556e-02 
       6.353886215025e+00       4.948904151577e-02 
       6.512182904453e+00       4.859590674387e-02 
       6.689450870827e+00       4.757526587153e-02 
       6.887577416266e+00       4.639485500522e-02 
       7.107664085680e+00       4.502184786710e-02 
       7.349552243381e+00       4.343189065779e-02 
       7.611573206803e+00       4.162009098666e-02 
       7.890746742314e+00       3.961001476400e-02 
       8.183403549334e+00       3.745576194956e-02 
       8.485921288992e+00       3.523485398556e-02 
       8.795240644840e+00       3.303385031433e-02 
       9.109051114076e+00       3.093489914064e-02 
       9.425738165760e+00       2.900411283944e-02 
       9.744230784169e+00       2.728655394503e-02 
       1.006384206962e+01       2.580482394214e-02 
       1.038414079370e+01       2.456014774399e-02 
       1.070485982026e+01       2.353614751161e-02 
       1.102583502007e+01       2.270296719473e-02 
       1.134696605885e+01       2.202118879369e-02 
       1.166819178949e+01       2.144695665300e-02 
       1.198947501666e+01       2.093514602608e-02 
       1.231079314046e+01       2.044363285854e-02 
       1.263213243874e+01       1.993734763941e-02 
       1.295348458316e+01       1.939028408642e-02 
       1.327484452036e+01       1.878791707218e-02 
       1.359620918456e+01       1.812724302894e-02 
       1.391757671604e+01       1.741568147822e-02 
       1.423894598668e+01       1.666891627813e-02 
       1.456031631222e+01       1.590783707472e-02 
       1.488168727764e+01       1.515531171646e-02 
       1.520305863117e+01       1.443318497778e-02 
       1.552443022014e+01       1.376022555182e-02 
       1.584580195193e+01       1.315008556211e-02 
       1.616717377036e+01       1.261087101069e-02 
       1.648854564135e+01       1.214473624215e-02 
       1.680991754425e+01       1.174879017261e-02 
