# dimensionless total [l(l+1)/2pi] C_l's
# for l=2 to 3000, i.e. number of multipoles equal to 2999
#
# -> if you prefer output in CAMB/HealPix/LensPix units/order, set 'format' to 'camb' in input file
# -> if you don't want to see such a header, set 'headers' to 'no' in input file
# -> for CMB lensing (phi), these are C_l^phi-phi for the lensing potential.
#    Remember the conversion factors:
#    C_l^dd (deflection) = l(l+1) C_l^phi-phi
#    C_l^gg (shear/convergence) = 1/4 (l(l+1))^2 C_l^phi-phi
#
# 1:l     2:TT                     3:EE                     4:TE                     5:BB                     6:phiphi                 7:TPhi                   8:Ephi               
    2       5.905330105038e-10       3.380873230920e-15       8.130424353191e-13       0.000000000000e+00       2.301579519288e-08      -2.963467657338e-09      -2.237015475077e-12 
    3       4.279963832013e-10       6.770828688010e-15       8.089415775468e-13       0.000000000000e+00       1.455530867890e-08      -1.922650264417e-09      -1.868690395425e-12 
    4       3.410736032686e-10       1.031385579693e-14       7.849665615317e-13       0.000000000000e+00       1.011991609735e-08      -1.378365930680e-09      -1.604094126641e-12 
    5       2.874339086837e-10       1.301772384287e-14       7.424859977434e-13       0.000000000000e+00       7.502873943248e-09      -1.051093738714e-09      -1.373800847793e-12 
    6       2.511093918932e-10       1.427716445732e-14       6.842873365637e-13       0.000000000000e+00       5.826097129327e-09      -8.350966999096e-10      -1.155351718247e-12 
    7       2.249999296239e-10       1.400138508737e-14       6.176908022751e-13       0.000000000000e+00       4.685033800730e-09      -6.833934478634e-10      -9.497879549387e-13 
    8       2.055083105145e-10       1.247458719728e-14       5.482772771872e-13       0.000000000000e+00       3.868641924916e-09      -5.718141227927e-10      -7.600221691520e-13 
    9       1.905346325860e-10       1.018585439522e-14       4.800881290415e-13       0.000000000000e+00       3.258482964911e-09      -4.867633280347e-10      -5.884252661987e-13 
   10       1.788246199476e-10       7.661839309301e-15       4.157796886325e-13       0.000000000000e+00       2.785121597667e-09      -4.200435515418e-10      -4.366533461189e-13 
   11       1.695476799528e-10       5.339521299649e-15       3.569446182636e-13       0.000000000000e+00       2.075142532858e-09      -3.473662335214e-10      -3.064077066258e-13 
   12       1.620856989041e-10       3.496886742054e-15       3.046393911531e-13       0.000000000000e+00       1.794997491922e-09      -3.047067231014e-10      -1.971792062783e-13 
   13       1.560866109934e-10       2.239495980795e-15       2.594851073376e-13       0.000000000000e+00       1.567586751550e-09      -2.693666995730e-10      -1.079966337236e-13 
   14       1.512762553684e-10       1.529172442228e-15       2.217943757632e-13       0.000000000000e+00       1.380357442991e-09      -2.399147114664e-10      -3.882025744861e-14 
   15       1.473692657670e-10       1.236065441295e-15       1.916985551820e-13       0.000000000000e+00       1.224310302760e-09      -2.148967676766e-10       1.242399630712e-14 
   16       1.442183522832e-10       1.195604097378e-15       1.690100716181e-13       0.000000000000e+00       1.092846798054e-09      -1.935758574218e-10       4.687003632810e-14 
   17       1.417116112705e-10       1.256085616778e-15       1.532373767375e-13       0.000000000000e+00       9.810448411427e-10      -1.750907893812e-10       6.710109962231e-14 
   18       1.396889529974e-10       1.304557314341e-15       1.437204552780e-13       0.000000000000e+00       8.846963262512e-10      -1.590666150740e-10       7.524141608336e-14 
   19       1.381239880666e-10       1.299372588114e-15       1.398897653584e-13       0.000000000000e+00       8.023026811996e-10      -1.452576564072e-10       7.338243949913e-14 
   20       1.369154971909e-10       1.222959945351e-15       1.405903418657e-13       0.000000000000e+00       7.302038945249e-10      -1.329924677728e-10       6.470529293320e-14 
   21       1.360277559680e-10       1.100979476860e-15       1.449404588681e-13       0.000000000000e+00       6.671201963932e-10      -1.221025893484e-10       5.126230471796e-14 
   22       1.353853538182e-10       9.788931777910e-16       1.518357284543e-13       0.000000000000e+00       6.114844267164e-10      -1.124100183120e-10       3.514110158480e-14 
   23       1.349773347909e-10       8.879891511202e-16       1.604407660077e-13       0.000000000000e+00       5.624358226695e-10      -1.038014986363e-10       1.803820053013e-14 
   24       1.347718985835e-10       8.533423960613e-16       1.698498533541e-13       0.000000000000e+00       5.187187079984e-10      -9.607592642823e-11       1.638689855288e-15 
   25       1.347502860944e-10       8.768796265474e-16       1.794143414988e-13       0.000000000000e+00       4.797563150931e-10      -8.912566640914e-11      -1.301933542440e-14 
   26       1.348726039936e-10       9.484904487819e-16       1.885253848737e-13       0.000000000000e+00       4.447902927817e-10      -8.281079532653e-11      -2.514341264724e-14 
   27       1.351343880743e-10       1.048198273479e-15       1.968607628111e-13       0.000000000000e+00       4.133575420714e-10      -7.708514609272e-11      -3.433159871281e-14 
   28       1.355241915257e-10       1.151976218401e-15       2.042002857852e-13       0.000000000000e+00       3.848700526864e-10      -7.189057330551e-11      -4.041002521710e-14 
   29       1.360407681436e-10       1.250273106678e-15       2.104779721031e-13       0.000000000000e+00       3.591560268607e-10      -6.719731732516e-11      -4.344037487879e-14 
   30       1.366636145270e-10       1.336983815621e-15       2.156985693039e-13       0.000000000000e+00       3.359124607791e-10      -6.293494174693e-11      -4.369804558501e-14 
   31       1.373555479051e-10       1.407758103119e-15       2.199166734185e-13       0.000000000000e+00       3.146317930950e-10      -5.899730621023e-11      -4.162339611044e-14 
   32       1.381190174044e-10       1.470250207756e-15       2.232813376861e-13       0.000000000000e+00       2.951880335649e-10      -5.536940350729e-11      -3.765943893707e-14 
   33       1.389570715933e-10       1.538035580820e-15       2.260159966745e-13       0.000000000000e+00       2.774296495881e-10      -5.204098210666e-11      -3.238022153552e-14 
   34       1.398621026603e-10       1.625404691130e-15       2.283783115094e-13       0.000000000000e+00       2.610907176647e-10      -4.898058717724e-11      -2.645761882095e-14 
   35       1.408337485433e-10       1.737562872145e-15       2.305436328291e-13       0.000000000000e+00       2.460772328062e-10      -4.617061259401e-11      -2.034923402593e-14 
   36       1.418647923647e-10       1.877089225197e-15       2.326847892827e-13       0.000000000000e+00       2.322581295653e-10      -4.358029578818e-11      -1.451465194965e-14 
   37       1.429414814738e-10       2.045690195323e-15       2.349713432667e-13       0.000000000000e+00       2.194410800664e-10      -4.116770697287e-11      -9.421246585539e-15 
   38       1.440653064173e-10       2.241424786627e-15       2.374564782137e-13       0.000000000000e+00       2.075870408861e-10      -3.892586448040e-11      -5.262869003980e-15 
   39       1.452367949132e-10       2.460455172320e-15       2.401522265790e-13       0.000000000000e+00       1.966533270280e-10      -3.684936929536e-11      -2.149970837776e-15 
   40       1.464486990360e-10       2.697678231633e-15       2.430581235424e-13       0.000000000000e+00       1.865285464690e-10      -3.492069418979e-11      -1.831476791653e-16 
   41       1.476902139234e-10       2.948116501010e-15       2.461452473698e-13       0.000000000000e+00       1.770702535686e-10      -3.311650811825e-11       5.835247768319e-16 
   42       1.489631310399e-10       3.211843862020e-15       2.493051883646e-13       0.000000000000e+00       1.682469740033e-10      -3.143168879668e-11       2.634415471529e-16 
   43       1.502696512181e-10       3.490517517729e-15       2.523822996339e-13       0.000000000000e+00       1.600323853663e-10      -2.986133229084e-11      -9.417316332134e-16 
   44       1.516074349820e-10       3.786053482876e-15       2.551846800614e-13       0.000000000000e+00       1.523627901200e-10      -2.839348896699e-11      -2.770145514219e-15 
   45       1.529720299409e-10       4.100092646063e-15       2.575086154743e-13       0.000000000000e+00       1.451591837530e-10      -2.701331194809e-11      -4.937543167579e-15 
   46       1.543660203935e-10       4.432173339548e-15       2.592260322499e-13       0.000000000000e+00       1.384083001180e-10      -2.571829677237e-11      -7.273107325461e-15 
   47       1.557918897713e-10       4.781037895732e-15       2.602192788620e-13       0.000000000000e+00       1.321007616869e-10      -2.450664831526e-11      -9.617691492138e-15 
   48       1.572491513258e-10       5.145117904956e-15       2.603559169665e-13       0.000000000000e+00       1.262066771709e-10      -2.337269003344e-11      -1.178432122991e-14 
   49       1.587340871891e-10       5.522517568529e-15       2.594879627615e-13       0.000000000000e+00       1.206741236418e-10      -2.230657685006e-11      -1.355674944043e-14 
   50       1.602417163932e-10       5.911606181546e-15       2.574832292757e-13       0.000000000000e+00       1.154444761487e-10      -2.129724870962e-11      -1.473757557842e-14 
   51       1.617729340722e-10       6.313023796791e-15       2.543311428111e-13       0.000000000000e+00       1.105068235209e-10      -2.034290248626e-11      -1.531135318853e-14 
   52       1.633288590660e-10       6.728191200323e-15       2.500643378215e-13       0.000000000000e+00       1.058556993733e-10      -1.944286626112e-11      -1.532325878082e-14 
   53       1.649086219858e-10       7.158760096796e-15       2.447298005185e-13       0.000000000000e+00       1.014748177162e-10      -1.859447566852e-11      -1.483426409353e-14 
   54       1.665092091678e-10       7.606625127422e-15       2.383896208634e-13       0.000000000000e+00       9.733634789950e-11      -1.779293928329e-11      -1.392202379479e-14 
   55       1.681270239083e-10       8.073638551928e-15       2.311116057841e-13       0.000000000000e+00       9.340923596379e-11      -1.703281773187e-11      -1.267663796938e-14 
   56       1.697633818415e-10       8.560643760747e-15       2.229366653813e-13       0.000000000000e+00       8.968825048445e-11      -1.631319969782e-11      -1.118467320401e-14 
   57       1.714201074022e-10       9.068222716918e-15       2.139046419286e-13       0.000000000000e+00       8.617088234789e-11      -1.563357596254e-11      -9.542726875745e-15 
   58       1.730978489508e-10       9.596972680319e-15       2.040640880073e-13       0.000000000000e+00       8.284856604565e-11      -1.499226815931e-11      -7.862877626212e-15 
   59       1.747959896323e-10       1.014750664111e-14       1.934726234807e-13       0.000000000000e+00       7.970630707673e-11      -1.438635703298e-11      -6.273373379532e-15 
   60       1.765125582367e-10       1.072045375320e-14       1.821972924691e-13       0.000000000000e+00       7.672230934994e-11      -1.381161069964e-11      -4.919319360308e-15 
   61       1.782452846282e-10       1.131632956565e-14       1.702948693678e-13       0.000000000000e+00       7.387394813673e-11      -1.326362407359e-11      -3.929842068480e-15 
   62       1.799952445287e-10       1.193511169882e-14       1.577468036849e-13       0.000000000000e+00       7.115809853187e-11      -1.274169831212e-11      -3.309411976340e-15 
   63       1.817638783876e-10       1.257656925990e-14       1.445102398769e-13       0.000000000000e+00       6.857472951867e-11      -1.224570881219e-11      -3.023236928817e-15 
   64       1.835518672260e-10       1.324038101585e-14       1.305365060715e-13       0.000000000000e+00       6.612079319497e-11      -1.177493823161e-11      -3.028265398740e-15 
   65       1.853590798126e-10       1.392613169565e-14       1.157708348405e-13       0.000000000000e+00       6.379005351503e-11      -1.132804317817e-11      -3.272810812271e-15 
   66       1.871845198404e-10       1.463330829252e-14       1.001520839728e-13       0.000000000000e+00       6.157291503138e-11      -1.090302089872e-11      -3.696175874335e-15 
   67       1.890262731023e-10       1.536129636617e-14       8.361245724685e-14       0.000000000000e+00       5.945625163663e-11      -1.049717596829e-11      -4.228276894055e-15 
   68       1.908823569825e-10       1.610953300343e-14       6.608795465814e-14       0.000000000000e+00       5.742687772268e-11      -1.010782733625e-11      -4.800163540338e-15 
   69       1.927535868862e-10       1.687800995656e-14       4.755280613057e-14       0.000000000000e+00       5.548316121373e-11      -9.734670288201e-12      -5.378893088391e-15 
   70       1.946411983975e-10       1.766686627959e-14       2.799154542313e-14       0.000000000000e+00       5.362546679564e-11      -9.377835437573e-12      -5.939080203266e-15 
   71       1.965459671413e-10       1.847624099365e-14       7.388893283430e-15       0.000000000000e+00       5.185264499888e-11      -9.037176596343e-12      -6.452531465518e-15 
   72       1.984681790363e-10       1.930627339577e-14      -1.427024736882e-14       0.000000000000e+00       5.016195409689e-11      -8.712256399096e-12      -6.888148352144e-15 
   73       2.004076005482e-10       2.015710336774e-14      -3.700079625829e-14       0.000000000000e+00       4.854898200436e-11      -8.402331927097e-12      -7.211830217518e-15 
   74       2.023634489433e-10       2.102887168497e-14      -6.081750057051e-14       0.000000000000e+00       4.700756817554e-11      -8.106340332363e-12      -7.386377274326e-15 
   75       2.043343625411e-10       2.192172032530e-14      -8.573493976833e-14       0.000000000000e+00       4.552972550256e-11      -7.822884461738e-12      -7.371393574498e-15 
   76       2.063190088863e-10       2.283575009025e-14      -1.117610551049e-13       0.000000000000e+00       4.410761004618e-11      -7.550578147635e-12      -7.136667595290e-15 
   77       2.083181030554e-10       2.377088386412e-14      -1.388763653072e-13       0.000000000000e+00       4.274001755418e-11      -7.289186551429e-12      -6.705345426181e-15 
   78       2.103327050636e-10       2.472697886480e-14      -1.670509519142e-13       0.000000000000e+00       4.142693522338e-11      -7.038668615149e-12      -6.118490734014e-15 
   79       2.123635982018e-10       2.570386656189e-14      -1.962504724485e-13       0.000000000000e+00       4.016756343907e-11      -6.798828955195e-12      -5.422482037183e-15 
   80       2.144112723710e-10       2.670135211024e-14      -2.264360324520e-13       0.000000000000e+00       3.896027966569e-11      -6.569310861665e-12      -4.669192055775e-15 
   81       2.164759074161e-10       2.771921378341e-14      -2.575640575205e-13       0.000000000000e+00       3.780260233765e-11      -6.349589297686e-12      -3.916167061719e-15 
   82       2.185573564605e-10       2.875720240719e-14      -2.895861653397e-13       0.000000000000e+00       3.669115475009e-11      -6.138963898739e-12      -3.226806228928e-15 
   83       2.206551292402e-10       2.981504079310e-14      -3.224490377193e-13       0.000000000000e+00       3.562162894963e-11      -5.936551971992e-12      -2.670540983445e-15 
   84       2.227687294358e-10       3.089244820200e-14      -3.561067159345e-13       0.000000000000e+00       3.458982832320e-11      -5.741502026667e-12      -2.306593200150e-15 
   85       2.248987674276e-10       3.198921963551e-14      -3.905601090204e-13       0.000000000000e+00       3.359507304917e-11      -5.553690372419e-12      -2.131763253816e-15 
   86       2.270460023136e-10       3.310515871191e-14      -4.258238309511e-13       0.000000000000e+00       3.263729561827e-11      -5.373127703758e-12      -2.124274918178e-15 
   87       2.292109937552e-10       3.424005366106e-14      -4.619144393104e-13       0.000000000000e+00       3.171599461581e-11      -5.199745590898e-12      -2.259331723351e-15 
   88       2.313940912609e-10       3.539367717856e-14      -4.988505161223e-13       0.000000000000e+00       3.083021674181e-11      -5.033393185490e-12      -2.509020320200e-15 
   89       2.335954234704e-10       3.656578627994e-14      -5.366527486806e-13       0.000000000000e+00       2.997853883118e-11      -4.873833926351e-12      -2.842213844714e-15 
   90       2.358148874377e-10       3.775612215482e-14      -5.753440103798e-13       0.000000000000e+00       2.915904987384e-11      -4.720742245200e-12      -3.224475282382e-15 
   91       2.380521379159e-10       3.896441002109e-14      -6.149494415447e-13       0.000000000000e+00       2.836933303490e-11      -4.573700272389e-12      -3.617960832563e-15 
   92       2.403065766400e-10       4.019035897907e-14      -6.554965302610e-13       0.000000000000e+00       2.760644767475e-11      -4.432194542634e-12      -3.981323272860e-15 
   93       2.425776592667e-10       4.143365935725e-14      -6.970079285369e-13       0.000000000000e+00       2.686762605266e-11      -4.295734471227e-12      -4.278377469583e-15 
   94       2.448658922734e-10       4.269397460950e-14      -7.394784892926e-13       0.000000000000e+00       2.615252235322e-11      -4.164235320944e-12      -4.505797646379e-15 
   95       2.471719668774e-10       4.397094792392e-14      -7.828949091096e-13       0.000000000000e+00       2.546127024459e-11      -4.037687010622e-12      -4.669426500274e-15 
   96       2.494964484690e-10       4.526420444482e-14      -8.272426665353e-13       0.000000000000e+00       2.479379027416e-11      -3.916035875802e-12      -4.775907549170e-15 
   97       2.518397702560e-10       4.657335109249e-14      -8.725060031922e-13       0.000000000000e+00       2.414978169902e-11      -3.799183045988e-12      -4.832708772762e-15 
   98       2.542022269075e-10       4.789797638295e-14      -9.186679048874e-13       0.000000000000e+00       2.352871431646e-11      -3.686982821902e-12      -4.848146253455e-15 
   99       2.565839681985e-10       4.923765024763e-14      -9.657100827218e-13       0.000000000000e+00       2.292982029446e-11      -3.579241052735e-12      -4.831407817276e-15 
  100       2.589849926540e-10       5.059192385320e-14      -1.013612954199e-12       0.000000000000e+00       2.235208600219e-11      -3.475713513411e-12      -4.792576674789e-15 
  101       2.614051411929e-10       5.196032942121e-14      -1.062355624336e-12       0.000000000000e+00       2.179424384048e-11      -3.376104281836e-12      -4.742655062014e-15 
  102       2.638440907727e-10       5.334238004792e-14      -1.111915866770e-12       0.000000000000e+00       2.125476407233e-11      -3.280064116157e-12      -4.693587881339e-15 
  103       2.663013480332e-10       5.473756952396e-14      -1.162270104870e-12       0.000000000000e+00       2.073184665338e-11      -3.187188832017e-12      -4.658286342437e-15 
  104       2.687764509550e-10       5.614536038695e-14      -1.213394681526e-12       0.000000000000e+00       2.022382980761e-11      -3.097107335656e-12      -4.647888155291e-15 
  105       2.712696185470e-10       5.756514662938e-14      -1.265269904570e-12       0.000000000000e+00       1.973049620820e-11      -3.009762761899e-12      -4.663065681613e-15 
  106       2.737811774817e-10       5.899628559356e-14      -1.317876515157e-12       0.000000000000e+00       1.925192883374e-11      -2.925166465351e-12      -4.701582248823e-15 
  107       2.763113578975e-10       6.043810898315e-14      -1.371194443212e-12       0.000000000000e+00       1.878810643286e-11      -2.843311126077e-12      -4.760944103219e-15 
