# dimensionless total [l(l+1)/2pi] C_l's
# for l=2 to 3000, i.e. number of multipoles equal to 2999
#
# -> if you prefer output in CAMB/HealPix/LensPix units/order, set 'format' to 'camb' in input file
# -> if you don't want to see such a header, set 'headers' to 'no' in input file
# -> for CMB lensing (phi), these are C_l^phi-phi for the lensing potential.
#    Remember the conversion factors:
#    C_l^dd (deflection) = l(l+1) C_l^phi-phi
#    C_l^gg (shear/convergence) = 1/4 (l(l+1))^2 C_l^phi-phi
#
# 1:l     2:TT                     3:EE                     4:TE                     5:BB                     6:phiphi                 7:TPhi                   8:Ephi               
    2       5.918556502540e-10       3.378612754635e-15       8.132709972479e-13       0.000000000000e+00       2.296744134347e-08      -2.967535310701e-09      -2.236639652117e-12 
    3       4.289115492811e-10       6.767262465300e-15       8.091169136311e-13       0.000000000000e+00       1.454755223272e-08      -1.926182435360e-09      -1.868500083966e-12 
    4       3.417574160178e-10       1.030982446951e-14       7.850874670715e-13       0.000000000000e+00       1.012378725194e-08      -1.381149172475e-09      -1.603917328729e-12 
    5       2.879641756738e-10       1.301467318144e-14       7.425881819005e-13       0.000000000000e+00       7.508717295081e-09      -1.053238105236e-09      -1.373687803249e-12 
    6       2.515327616122e-10       1.427631893332e-14       6.843923023509e-13       0.000000000000e+00       5.830937110975e-09      -8.367646243728e-10      -1.155327515290e-12 
    7       2.253538731215e-10       1.400330588294e-14       6.178042922277e-13       0.000000000000e+00       4.688467796512e-09      -6.847380028143e-10      -9.498543319060e-13 
    8       2.058124286892e-10       1.247904205600e-14       5.484014890258e-13       0.000000000000e+00       3.871212064926e-09      -5.729429813756e-10      -7.601656086375e-13 
    9       1.907974545796e-10       1.019200237801e-14       4.802233536961e-13       0.000000000000e+00       3.260915498374e-09      -4.877340595814e-10      -5.886284513573e-13 
   10       1.790486150376e-10       7.668542337203e-15       4.159206069856e-13       0.000000000000e+00       2.787942031360e-09      -4.209020099206e-10      -4.368969997605e-13 
   11       1.697480277344e-10       5.345685851620e-15       3.570815759766e-13       0.000000000000e+00       2.076653763507e-09      -3.480025308149e-10      -3.066776741385e-13 
   12       1.622662193536e-10       3.501727407318e-15       3.047686459544e-13       0.000000000000e+00       1.796294653567e-09      -3.052849370440e-10      -1.974617269046e-13 
   13       1.562457280200e-10       2.242668060644e-15       2.596087906362e-13       0.000000000000e+00       1.568711030868e-09      -2.698737139048e-10      -1.082290953512e-13 
   14       1.514179746845e-10       1.530764231514e-15       2.219061076094e-13       0.000000000000e+00       1.381339742819e-09      -2.403633335496e-10      -3.904210746840e-14 
   15       1.474939936119e-10       1.236478917319e-15       1.917896606599e-13       0.000000000000e+00       1.225175390588e-09      -2.152978945104e-10       1.222432291168e-14 
   16       1.443355763470e-10       1.195383781715e-15       1.690791258234e-13       0.000000000000e+00       1.093613526694e-09      -1.939296347129e-10       4.673154850451e-14 
   17       1.418135391338e-10       1.255749325807e-15       1.532879072449e-13       0.000000000000e+00       9.817287794038e-10      -1.754134713448e-10       6.699527571950e-14 
   18       1.397790788025e-10       1.304457629891e-15       1.437486578887e-13       0.000000000000e+00       8.853088857549e-10      -1.593559613310e-10       7.518383298768e-14 
   19       1.382081109817e-10       1.299669354063e-15       1.398940438510e-13       0.000000000000e+00       8.028549047221e-10      -1.455144760658e-10       7.338426850155e-14 
   20       1.369944334835e-10       1.223585891156e-15       1.405752686572e-13       0.000000000000e+00       7.307035885148e-10      -1.332296691446e-10       6.474541432629e-14 
   21       1.360997563577e-10       1.101757769673e-15       1.449098418911e-13       0.000000000000e+00       6.675740824982e-10      -1.223257842211e-10       5.132342578404e-14 
   22       1.354477165533e-10       9.795903906133e-16       1.517906610990e-13       0.000000000000e+00       6.118980669534e-10      -1.126124446184e-10       3.522162808398e-14 
   23       1.350320871717e-10       8.884159012658e-16       1.603849455179e-13       0.000000000000e+00       5.628141401455e-10      -1.039841763276e-10       1.813499075591e-14 
   24       1.348261526153e-10       8.534052689536e-16       1.697905735658e-13       0.000000000000e+00       5.190657001096e-10      -9.625174272581e-11       1.741959277287e-15 
   25       1.348046674580e-10       8.765840032279e-16       1.793566221551e-13       0.000000000000e+00       4.800755295410e-10      -8.929801883398e-11      -1.291977837494e-14 
   26       1.349189893500e-10       9.479420717207e-16       1.884700961195e-13       0.000000000000e+00       4.450846922392e-10      -8.296865753564e-11      -2.505557505524e-14 
   27       1.351696711064e-10       1.047534265243e-15       1.968080799645e-13       0.000000000000e+00       4.136297368524e-10      -7.722348209337e-11      -3.426065848530e-14 
   28       1.355539667476e-10       1.151332916738e-15       2.041507440747e-13       0.000000000000e+00       3.851222176401e-10      -7.201593206401e-11      -4.035807978980e-14 
   29       1.360706029884e-10       1.249744008354e-15       2.104323040020e-13       0.000000000000e+00       3.593902023142e-10      -6.731657696560e-11      -4.340876857727e-14 
   30       1.366957131106e-10       1.336592199181e-15       2.156576826033e-13       0.000000000000e+00       3.361304599141e-10      -6.305106476360e-11      -4.368806263636e-14 
   31       1.373885487089e-10       1.407450787843e-15       2.198814473158e-13       0.000000000000e+00       3.148350568368e-10      -5.910912459216e-11      -4.163575412443e-14 
   32       1.381510415782e-10       1.469946197182e-15       2.232515700075e-13       0.000000000000e+00       2.953779073222e-10      -5.547546480668e-11      -3.769194808264e-14 
   33       1.389867241737e-10       1.537639822126e-15       2.259898492962e-13       0.000000000000e+00       2.776073676632e-10      -5.214084028729e-11      -3.242651462677e-14 
   34       1.398885645548e-10       1.624815654297e-15       2.283525464203e-13       0.000000000000e+00       2.612573215430e-10      -4.907478191614e-11      -2.650779008753e-14 
   35       1.408565774984e-10       1.736707705500e-15       2.305159189444e-13       0.000000000000e+00       2.462336865691e-10      -4.625967093929e-11      -2.039565895207e-14 
   36       1.418839264146e-10       1.875942063481e-15       2.326546956532e-13       0.000000000000e+00       2.324052910556e-10      -4.366436598181e-11      -1.455452923316e-14 
   37       1.429572350416e-10       2.044272400403e-15       2.349402311022e-13       0.000000000000e+00       2.195796582319e-10      -4.124658083300e-11      -9.456512529305e-15 
   38       1.440780586282e-10       2.239765254558e-15       2.374253686230e-13       0.000000000000e+00       2.077177113248e-10      -3.899948064454e-11      -5.295467521784e-15 
   39       1.452468852272e-10       2.458577692467e-15       2.401210258638e-13       0.000000000000e+00       1.967767323918e-10      -3.691799239386e-11      -2.180258720736e-15 
   40       1.464564028204e-10       2.695599333149e-15       2.430253697618e-13       0.000000000000e+00       1.866452493214e-10      -3.498496899874e-11      -2.095113141540e-16 
   41       1.476957542059e-10       2.945844361091e-15       2.461083680785e-13       0.000000000000e+00       1.771807154051e-10      -3.317740146748e-11       5.644643399152e-16 
   42       1.489668175768e-10       3.209381199685e-15       2.492625304265e-13       0.000000000000e+00       1.683516327531e-10      -3.149004391369e-11       2.545684517494e-16 
   43       1.502719304666e-10       3.487861530308e-15       2.523339369338e-13       0.000000000000e+00       1.601316596440e-10      -2.991768936337e-11      -9.388603269876e-16 
   44       1.516089062413e-10       3.783194598217e-15       2.551327637427e-13       0.000000000000e+00       1.524570540836e-10      -2.844800496686e-11      -2.755593683362e-15 
   45       1.529734001945e-10       4.097015519907e-15       2.574572407748e-13       0.000000000000e+00       1.452487568517e-10      -2.706577885100e-11      -4.913015969481e-15 
   46       1.543678517910e-10       4.428865566143e-15       2.591794351635e-13       0.000000000000e+00       1.384934914840e-10      -2.576850193356e-11      -7.241012587103e-15 
   47       1.557944936426e-10       4.777493183192e-15       2.601812380435e-13       0.000000000000e+00       1.321818728549e-10      -2.455448639805e-11      -9.580902897933e-15 
   48       1.572525359872e-10       5.141337187280e-15       2.603296073418e-13       0.000000000000e+00       1.262839883660e-10      -2.341818126504e-11      -1.174620808809e-14 
   49       1.587379028646e-10       5.518510176027e-15       2.594758003484e-13       0.000000000000e+00       1.207478790616e-10      -2.234988618938e-11      -1.352120706010e-14 
   50       1.602452954159e-10       5.907387710556e-15       2.574867981555e-13       0.000000000000e+00       1.155148796251e-10      -2.133867031166e-11      -1.470878857417e-14 
   51       1.617756541095e-10       6.308602885566e-15       2.543514152350e-13       0.000000000000e+00       1.105740709810e-10      -2.038272683613e-11      -1.529267068776e-14 
   52       1.633302660158e-10       6.723564488405e-15       2.501016655572e-13       0.000000000000e+00       1.059199827507e-10      -1.948133436671e-11      -1.531671771992e-14 
   53       1.649084640646e-10       7.153910182992e-15       2.447838178067e-13       0.000000000000e+00       1.015363178874e-10      -1.863176533884e-11      -1.484034742632e-14 
   54       1.665074727325e-10       7.601518428110e-15       2.384591428648e-13       0.000000000000e+00       9.739522715022e-11      -1.782915064263e-11      -1.393940671476e-14 
   55       1.681239096266e-10       8.068227397501e-15       2.311947518383e-13       0.000000000000e+00       9.346563585582e-11      -1.706797344852e-11      -1.270232550754e-14 
   56       1.697590805753e-10       8.554882667765e-15       2.230317324348e-13       0.000000000000e+00       8.974230857282e-11      -1.634729538733e-11      -1.121545326774e-14 
   57       1.714147296607e-10       9.062073831511e-15       2.140104062525e-13       0.000000000000e+00       8.622273390591e-11      -1.566659154247e-11      -9.575613635767e-15 
   58       1.730914107286e-10       9.590407260134e-15       2.041798982476e-13       0.000000000000e+00       8.289834009220e-11      -1.502416465980e-11      -7.895183820525e-15 
   59       1.747883975910e-10       1.014050660659e-14       1.935984981344e-13       0.000000000000e+00       7.975412216158e-11      -1.441707324633e-11      -6.302786346642e-15 
   60       1.765035942292e-10       1.071301330819e-14       1.823340217838e-13       0.000000000000e+00       7.676826909704e-11      -1.384105966877e-11      -4.943980801650e-15 
   61       1.782346273397e-10       1.130845403843e-14       1.704439329113e-13       0.000000000000e+00       7.391814076126e-11      -1.329169897224e-11      -3.948388502410e-15 
   62       1.799826136902e-10       1.192680715859e-14       1.579096765644e-13       0.000000000000e+00       7.120060986825e-11      -1.276830932765e-11      -3.320878519775e-15 
   63       1.817490828887e-10       1.256783940085e-14       1.446881803111e-13       0.000000000000e+00       6.861564515466e-11      -1.227079573048e-11      -3.027073551615e-15 
   64       1.835348184130e-10       1.323122668680e-14       1.307305180758e-13       0.000000000000e+00       6.616019655147e-11      -1.179847422258e-11      -3.024395825561e-15 
   65       1.853398053280e-10       1.391655040861e-14       1.159816293476e-13       0.000000000000e+00       6.382802381759e-11      -1.135003872329e-11      -3.261693788105e-15 
   66       1.871631780036e-10       1.462329371021e-14       1.003800383884e-13       0.000000000000e+00       6.160952517349e-11      -1.092352786059e-11      -3.678868793714e-15 
   67       1.890031678321e-10       1.535083776844e-14       8.385757344194e-14       0.000000000000e+00       5.949156593477e-11      -1.051629180223e-11      -4.206501793932e-15 
   68       1.908579186588e-10       1.609861586006e-14       6.634990722626e-14       0.000000000000e+00       5.746095189452e-11      -1.012569179427e-11      -4.776208778882e-15 
   69       1.927282418051e-10       1.686662012636e-14       4.783128618048e-14       0.000000000000e+00       5.551604979104e-11      -9.751437515792e-12      -5.354978135866e-15 
   70       1.946153279281e-10       1.765499128355e-14       2.828636618431e-14       0.000000000000e+00       5.365722442140e-11      -9.393665923907e-12      -5.917152279568e-15 
   71       1.965198991502e-10       1.846387023325e-14       7.700009949510e-15       0.000000000000e+00       5.188332547849e-11      -9.052236280310e-12      -6.434217364864e-15 
   72       1.984421789687e-10       1.929339837917e-14      -1.394271701256e-14       0.000000000000e+00       5.019160940076e-11      -8.726715721781e-12      -6.874704368571e-15 
   73       2.003818621654e-10       2.014371794365e-14      -3.665655042323e-14       0.000000000000e+00       4.857766122186e-11      -8.416364830644e-12      -7.204090171200e-15 
   74       2.023380847167e-10       2.101497228434e-14      -6.045603126888e-14       0.000000000000e+00       4.703531642032e-11      -8.120123205236e-12      -7.384698638708e-15 
   75       2.043093937034e-10       2.190730621077e-14      -8.535550983330e-14       0.000000000000e+00       4.555658276924e-11      -7.836595030380e-12      -7.375601704247e-15 
   76       2.062943699911e-10       2.282082284764e-14      -1.113627363133e-13       0.000000000000e+00       4.413361130486e-11      -7.564388461650e-12      -7.146103121109e-15 
   77       2.082936938787e-10       2.375544444335e-14      -1.384582744081e-13       0.000000000000e+00       4.276519692639e-11      -7.303237124361e-12      -6.719247067767e-15 
   78       2.103084032130e-10       2.471102663650e-14      -1.666123235833e-13       0.000000000000e+00       4.145132673598e-11      -7.053057859943e-12      -6.136100693731e-15 
   79       2.123392576008e-10       2.568739909238e-14      -1.957906740351e-13       0.000000000000e+00       4.019120053582e-11      -6.813607996868e-12      -5.443052005027e-15 
   80       2.143867217035e-10       2.668436492849e-14      -2.259545792103e-13       0.000000000000e+00       3.898319469663e-11      -6.584478176354e-12      -4.691989469629e-15 
   81       2.164509485330e-10       2.770170014016e-14      -2.570606283266e-13       0.000000000000e+00       3.782482602614e-11      -6.365085178078e-12      -3.940481622881e-15 
   82       2.185317627470e-10       2.873915302608e-14      -2.890606188924e-13       0.000000000000e+00       3.671271563769e-11      -6.154664745876e-12      -3.251956672921e-15 
   83       2.206286439441e-10       2.979644361388e-14      -3.219014292267e-13       0.000000000000e+00       3.564255281868e-11      -5.952264413456e-12      -2.695882106112e-15 
   84       2.227410756939e-10       3.087328891113e-14      -3.555372507218e-13       0.000000000000e+00       3.461013827517e-11      -5.756975510480e-12      -2.331521913090e-15 
   85       2.248696956976e-10       3.196948472639e-14      -3.899688938270e-13       0.000000000000e+00       3.361479172388e-11      -5.568689087569e-12      -2.155720983806e-15 
   86       2.270153065591e-10       3.308483642221e-14      -4.252107947327e-13       0.000000000000e+00       3.265644558799e-11      -5.387452736602e-12      -2.146753521750e-15 
   87       2.291785166012e-10       3.421913415743e-14      -4.612793140474e-13       0.000000000000e+00       3.173459812226e-11      -5.213239444431e-12      -2.279880804624e-15 
   88       2.313597293080e-10       3.537215274672e-14      -4.981928170451e-13       0.000000000000e+00       3.084829542226e-11      -5.045944438428e-12      -2.527254783395e-15 
   89       2.335591327669e-10       3.654365152028e-14      -5.359717539116e-13       0.000000000000e+00       2.999611343373e-11      -4.885382032032e-12      -2.857821681344e-15 
   90       2.357766891110e-10       3.773337418334e-14      -5.746387399915e-13       0.000000000000e+00       2.917613996183e-11      -4.731282470293e-12      -3.237225593113e-15 
   91       2.380121239610e-10       3.894104867587e-14      -6.142186360349e-13       0.000000000000e+00       2.838595668043e-11      -4.583288775417e-12      -3.627712083759e-15 
   92       2.402649158675e-10       4.016638703211e-14      -6.547386284446e-13       0.000000000000e+00       2.762262114146e-11      -4.440953592316e-12      -3.988031787802e-15 
   93       2.425345862096e-10       4.140908218131e-14      -6.962211400725e-13       0.000000000000e+00       2.688336390186e-11      -4.303842857260e-12      -4.282092768168e-15 
   94       2.448216416973e-10       4.266879810422e-14      -7.386611686646e-13       0.000000000000e+00       2.616783891724e-11      -4.171871490939e-12      -4.506615557915e-15 
   95       2.471267547610e-10       4.394517792964e-14      -7.820456726259e-13       0.000000000000e+00       2.547617991942e-11      -4.045012596314e-12      -4.667478556593e-15 
   96       2.494504693778e-10       4.523784668154e-14      -8.263604188605e-13       0.000000000000e+00       2.480830739130e-11      -3.923193468625e-12      -4.771363248300e-15 
   97       2.517931946381e-10       4.654641109664e-14      -8.715899646048e-13       0.000000000000e+00       2.416392039243e-11      -3.806293907275e-12      -4.825777893525e-15 
   98       2.541551983121e-10       4.787045944205e-14      -9.177176392598e-13       0.000000000000e+00       2.354248838460e-11      -3.694144527724e-12      -4.839081220989e-15 
   99       2.565366004164e-10       4.920956133290e-14      -9.647255262249e-13       0.000000000000e+00       2.294324305744e-11      -3.586525073373e-12      -4.820506119486e-15 
  100       2.589373667804e-10       5.056326754993e-14      -1.012594444730e-12       0.000000000000e+00       2.236517015401e-11      -3.483162727457e-12      -4.780183329725e-15 
  101       2.613573026126e-10       5.193110985710e-14      -1.061303931669e-12       0.000000000000e+00       2.180700129644e-11      -3.383730424932e-12      -4.729165136175e-15 
  102       2.637960460674e-10       5.331260081928e-14      -1.110832223434e-12       0.000000000000e+00       2.126720581146e-11      -3.287845164364e-12      -4.679449058901e-15 
  103       2.662530618114e-10       5.470723361978e-14      -1.161156237743e-12       0.000000000000e+00       2.074398255604e-11      -3.195066319820e-12      -4.644001545410e-15 
  104       2.687278506968e-10       5.611447045874e-14      -1.212252726674e-12       0.000000000000e+00       2.023566873996e-11      -3.104991883522e-12      -4.633999315394e-15 
  105       2.712206248957e-10       5.753370635608e-14      -1.264101952247e-12       0.000000000000e+00       1.974204689556e-11      -3.017565636313e-12      -4.650077957887e-15 
  106       2.737317123972e-10       5.896430009607e-14      -1.316684475801e-12       0.000000000000e+00       1.926320004306e-11      -2.932808517490e-12      -4.689939812085e-15 
  107       2.762613450349e-10       6.040558490579e-14      -1.369980025907e-12       0.000000000000e+00       1.879910691073e-11      -2.850723794850e-12      -4.751023946451e-15 
