# dimensionless total lensed [l(l+1)/2pi] C_l's
# for l=2 to 2500, i.e. number of multipoles equal to 2499
#
# -> if you prefer output in CAMB/HealPix/LensPix units/order, set 'format' to 'camb' in input file
# -> if you don't want to see such a header, set 'headers' to 'no' in input file
# -> for CMB lensing (phi), these are C_l^phi-phi for the lensing potential.
#    Remember the conversion factors:
#    C_l^dd (deflection) = l(l+1) C_l^phi-phi
#    C_l^gg (shear/convergence) = 1/4 (l(l+1))^2 C_l^phi-phi
#
# 1:l     2:TT                     3:EE                     4:TE                     5:BB                     6:phiphi                 7:TPhi                   8:Ephi               
    2       5.960182051784e-10       3.371951674932e-15       8.140137698428e-13       3.632843987117e-19       2.282681161918e-08      -2.980319580241e-09      -2.235558111773e-12 
    3       4.317900035511e-10       6.756795983267e-15       8.096724914698e-13       7.269478190001e-19       1.452415058307e-08      -1.937168010712e-09      -1.867912385131e-12 
    4       3.439069131539e-10       1.029835181712e-14       7.854682814260e-13       1.212412708587e-18       1.013508251412e-08      -1.389815104265e-09      -1.603360715769e-12 
    5       2.896287881097e-10       1.300684663868e-14       7.429070691790e-13       1.820158860514e-18       7.526654658702e-09      -1.059939484949e-09      -1.373330171713e-12 
    6       2.528595847419e-10       1.427619145337e-14       6.847222583374e-13       2.550764469870e-18       5.846385576076e-09      -8.419886112102e-10      -1.155255353393e-12 
    7       2.264664771083e-10       1.401271902520e-14       6.181611068321e-13       3.404892527264e-18       4.699719046295e-09      -6.889509188068e-10      -9.500635608663e-13 
    8       2.067697837045e-10       1.249740540573e-14       5.487931900719e-13       4.383275229791e-18       3.879472119785e-09      -5.764626708663e-10      -7.606161354153e-13 
    9       1.916271457390e-10       1.021680624235e-14       4.806470466506e-13       5.486696788634e-18       3.268169992873e-09      -4.907442841093e-10      -5.892665358683e-13 
   10       1.797532387482e-10       7.696339814084e-15       4.163573603903e-13       6.715975055928e-18       2.795824558414e-09      -4.235366307083e-10      -4.376626447781e-13 
   11       1.703823144625e-10       5.373166750734e-15       3.575045117078e-13       8.071942428160e-18       2.081449411095e-09      -3.499713096551e-10      -3.075182102728e-13 
   12       1.628434191282e-10       3.526545134234e-15       3.051663686894e-13       9.555426508108e-18       1.800411468685e-09      -3.070692995886e-10      -1.983423471857e-13 
   13       1.567689448405e-10       2.263858280534e-15       2.599891970897e-13       1.116723102122e-17       1.572280035493e-09      -2.714773067014e-10      -1.090526209497e-13 
   14       1.518812297951e-10       1.548726576942e-15       2.222502648008e-13       1.290811748462e-17       1.384458740886e-09      -2.417712803209e-10      -3.973563232364e-14 
   15       1.479073033234e-10       1.252602276836e-15       1.920650716883e-13       1.477878811720e-17       1.227922544146e-09      -2.165533288210e-10       1.159973006719e-14 
   16       1.447277439542e-10       1.211507796802e-15       1.692759282854e-13       1.677987045674e-17       1.096048806003e-09      -1.950288866746e-10       4.629795449309e-14 
   17       1.421621058281e-10       1.273634567024e-15       1.534277786973e-13       1.891190411541e-17       9.839011911836e-10      -1.764229945395e-10       6.666458335853e-14 
   18       1.400961367505e-10       1.325353856925e-15       1.438138188166e-13       2.117532920490e-17       8.872549795099e-10      -1.602673022858e-10       7.500320353342e-14 
   19       1.385099824739e-10       1.324220112953e-15       1.398742095402e-13       2.357048272644e-17       8.046090617105e-10      -1.463196862131e-10       7.339064919459e-14 
   20       1.372805266123e-10       1.251716625916e-15       1.404892295840e-13       2.609758410726e-17       7.322907286255e-10      -1.339608325134e-10       6.487228440188e-14 
   21       1.363682113643e-10       1.133049048453e-15       1.447736725448e-13       2.875674806513e-17       6.690157223422e-10      -1.230075824572e-10       5.151623897285e-14 
   22       1.357009320781e-10       1.013444487286e-15       1.516074386972e-13       3.154796900530e-17       6.132118357280e-10      -1.132456801975e-10       3.547573391907e-14 
   23       1.352764134707e-10       9.243681709818e-16       1.601610942524e-13       3.447114662660e-17       5.640156652415e-10      -1.045689632140e-10       1.844085053604e-14 
   24       1.350700888242e-10       8.912861355467e-16       1.695408839454e-13       3.752607008904e-17       5.201677571177e-10      -9.679434388420e-11       2.068891010210e-15 
   25       1.350491983845e-10       9.165348542048e-16       1.790986392077e-13       4.071246063611e-17       4.810894175485e-10      -8.980546830369e-11      -1.260405836704e-14 
   26       1.351554866088e-10       9.904227267593e-16       1.882198902008e-13       4.402994994657e-17       4.460197671511e-10      -8.344586910864e-11      -2.477673761770e-14 
   27       1.353923111541e-10       1.093105018467e-15       1.965703755404e-13       4.747812621831e-17       4.144942459244e-10      -7.767019368286e-11      -3.403511031129e-14 
   28       1.357637263066e-10       1.200552819778e-15       2.039168729752e-13       5.105652321782e-17       3.859230651672e-10      -7.242672001162e-11      -4.019201971094e-14 
   29       1.362714753326e-10       1.303036089876e-15       2.101949346574e-13       5.476470912076e-17       3.601338776716e-10      -6.769011608120e-11      -4.330606688135e-14 
   30       1.368938083889e-10       1.394156255077e-15       2.154166724661e-13       5.860222410561e-17       3.368227356936e-10      -6.339420340513e-11      -4.365266106889e-14 
   31       1.375912965682e-10       1.469243606913e-15       2.196434490755e-13       6.256859333761e-17       3.154805247406e-10      -5.943589696324e-11      -4.167009516396e-14 
   32       1.383625239372e-10       1.535835770074e-15       2.230204348645e-13       6.666346291726e-17       2.959808401958e-10      -5.579571213919e-11      -3.778942643847e-14 
   33       1.392052816797e-10       1.607448981779e-15       2.257626834589e-13       7.088652218996e-17       2.781716610783e-10      -5.245511118628e-11      -3.256742935251e-14 
   34       1.401071312849e-10       1.698345875315e-15       2.281200875945e-13       7.523750576484e-17       2.617862375943e-10      -4.937459372635e-11      -2.666133369188e-14 
   35       1.410694100011e-10       1.813849425013e-15       2.302700885289e-13       7.971630402840e-17       2.467302553286e-10      -4.653776429614e-11      -2.053813335558e-14 
   36       1.420892169792e-10       1.956732158958e-15       2.323915370687e-13       8.432290409058e-17       2.328722337939e-10      -4.391848616058e-11      -1.467729382453e-14 
   37       1.431571252015e-10       2.128895574498e-15       2.346596917878e-13       8.905738654585e-17       2.200192515843e-10      -4.147953820313e-11      -9.565685530827e-15 
   38       1.442752692018e-10       2.328432132388e-15       2.371264554561e-13       9.391998586249e-17       2.081321287910e-10      -3.921517979598e-11      -5.397025557507e-15 
   39       1.454436377841e-10       2.551486523421e-15       2.398000697296e-13       9.891106556532e-17       1.971680370937e-10      -3.712019477565e-11      -2.274989991760e-15 
   40       1.466542292443e-10       2.792930135399e-15       2.426754863244e-13       1.040311144889e-16       1.870152422970e-10      -3.517711621002e-11      -2.917748674662e-16 
   41       1.478955241616e-10       3.047755433333e-15       2.457202089445e-13       1.092807391029e-16       1.775308689053e-10      -3.336239540983e-11       5.060394335055e-16 
   42       1.491695382914e-10       3.316014726825e-15       2.488294892469e-13       1.146606140714e-16       1.686833431312e-10      -3.166991596652e-11       2.296121256843e-16 
   43       1.504790023028e-10       3.599342309578e-15       2.518542958013e-13       1.201715319910e-16       1.604462627721e-10      -3.009331967342e-11      -9.252279352047e-16 
   44       1.518221702663e-10       3.899625964895e-15       2.546106989085e-13       1.258144278009e-16       1.527557455536e-10      -2.861885071366e-11      -2.703758983238e-15 
   45       1.531950385298e-10       4.218482584662e-15       2.569025731064e-13       1.315903081032e-16       1.455325590617e-10      -2.722999921688e-11      -4.828906705013e-15 
   46       1.545997889643e-10       4.555463577961e-15       2.586030302142e-13       1.374999937822e-16       1.387633928970e-10      -2.592445365835e-11      -7.132765070501e-15 
   47       1.560381512619e-10       4.909337856663e-15       2.595935548829e-13       1.435443149800e-16       1.324388358725e-10      -2.470123031612e-11      -9.457990164198e-15 
   48       1.575087173770e-10       5.278568305170e-15       2.597404309066e-13       1.497241875283e-16       1.265289053688e-10      -2.355561818683e-11      -1.161950154896e-14 
   49       1.590066711649e-10       5.661295379350e-15       2.588939563309e-13       1.560406169337e-16       1.209815252293e-10      -2.247890001509e-11      -1.340303823315e-14 
   50       1.605260140644e-10       6.055915447504e-15       2.569197398479e-13       1.624945809170e-16       1.157378993645e-10      -2.146102075325e-11      -1.461221467660e-14 
   51       1.620675815993e-10       6.463038932855e-15       2.538044257755e-13       1.690866301936e-16       1.107870834008e-10      -2.050009405962e-11      -1.522809688681e-14 
   52       1.636327355304e-10       6.884035336454e-15       2.495773101954e-13       1.758171862194e-16       1.061235948375e-10      -1.959499401396e-11      -1.529044535087e-14 
   53       1.652209087223e-10       7.320496261923e-15       2.442814755012e-13       1.826866514793e-16       1.017311022282e-10      -1.874249627844e-11      -1.485381920390e-14 
   54       1.668294522438e-10       7.774247002241e-15       2.379745152145e-13       1.896954077579e-16       9.758169816865e-11      -1.793713782966e-11      -1.398841455097e-14 
   55       1.684550923636e-10       8.247078440159e-15       2.307202477811e-13       1.968437209999e-16       9.364424300029e-11      -1.717284286927e-11      -1.277744462872e-14 
   56       1.700990756720e-10       8.739838212499e-15       2.225597869398e-13       2.041314321734e-16       8.991348870098e-11      -1.644859488925e-11      -1.130659763643e-14 
   57       1.717630343016e-10       9.253134066739e-15       2.135345541850e-13       2.115581865820e-16       8.638691657490e-11      -1.576392797902e-11      -9.673428390533e-15 
   58       1.734473998015e-10       9.787594441341e-15       2.036950257309e-13       2.191235152953e-16       8.305593494657e-11      -1.511721419977e-11      -7.991275307347e-15 
   59       1.751513129605e-10       1.034386915568e-14       1.931011062493e-13       2.268268297807e-16       7.990550555314e-11      -1.450559212857e-11      -6.389963991484e-15 
   60       1.768725336303e-10       1.092263009995e-14       1.818225026069e-13       2.346674165344e-16       7.691376993645e-11      -1.392489540260e-11      -5.016510824227e-15 
   61       1.786085768101e-10       1.152443099411e-14       1.699185032763e-13       2.426444753933e-16       7.405803898281e-11      -1.337079639292e-11      -4.002111157907e-15 
   62       1.803606228964e-10       1.214924831924e-14       1.573711673011e-13       2.507572566625e-16       7.133517777988e-11      -1.284269886008e-11      -3.352853340194e-15 
   63       1.821303291045e-10       1.279683809865e-14       1.441377338323e-13       2.590049453808e-16       6.874515420942e-11      -1.234059622362e-11      -3.035611172200e-15 
   64       1.839186304044e-10       1.346686402933e-14       1.301696189745e-13       2.673866164535e-16       6.628491125059e-11      -1.186390128463e-11      -3.009235769624e-15 
   65       1.857256882517e-10       1.415889370029e-14       1.154121360815e-13       2.759012306702e-16       6.394819526991e-11      -1.141141332504e-11      -3.224189387188e-15 
   66       1.875508393193e-10       1.487239481081e-14       9.980421605104e-14       2.845476307216e-16       6.172538431136e-11      -1.098128520697e-11      -3.622179243068e-15 
   67       1.893925442291e-10       1.560673138878e-14       8.327812762014e-14       2.933245372175e-16       5.960331638639e-11      -1.057099047201e-11      -4.135791343332e-15 
   68       1.912491734423e-10       1.636132171949e-14       6.576998380074e-14       3.022307612150e-16       5.756876994091e-11      -1.017799140717e-11      -4.698353853063e-15 
   69       1.931216644468e-10       1.713615774521e-14       4.725435851182e-14       3.112659007127e-16       5.562010801179e-11      -9.801973977372e-12      -5.276666513017e-15 
   70       1.950113133588e-10       1.793138459957e-14       2.771621394215e-14       3.204297787786e-16       5.375769585647e-11      -9.443008725618e-12      -5.844275721636e-15 
   71       1.969189560801e-10       1.874714855673e-14       7.140731251025e-15       3.297222410530e-16       5.198038063576e-11      -9.100875170152e-12      -6.371729094806e-15 
   72       1.988449384406e-10       1.958359738549e-14      -1.448669327616e-14       3.391431573032e-16       5.028541310991e-11      -8.775046831325e-12      -6.826470915529e-15 
   73       2.007890863405e-10       2.044088070337e-14      -3.718045207243e-14       3.486924229789e-16       4.866836933475e-11      -8.464676258434e-12      -7.172737583590e-15 
   74       2.027506758924e-10       2.131915033073e-14      -6.095473013373e-14       3.583699607661e-16       4.712307235776e-11      -8.168580056574e-12      -7.371453065229e-15 
   75       2.047284035635e-10       2.221856064492e-14      -8.582350886340e-14       3.681757221429e-16       4.564151391416e-11      -7.885223913483e-12      -7.380124342810e-15 
   76       2.067209552505e-10       2.313922335846e-14      -1.117942849463e-13       3.781097847408e-16       4.421582926974e-11      -7.613086912501e-12      -7.166620593557e-15 
   77       2.087288993092e-10       2.408106155060e-14      -1.388478961302e-13       3.881726614913e-16       4.284481059830e-11      -7.351864267445e-12      -6.753642716755e-15 
   78       2.107530860864e-10       2.504392953743e-14      -1.669550064711e-13       3.983650509406e-16       4.152844460590e-11      -7.101457728026e-12      -6.182210767994e-15 
   79       2.127940623196e-10       2.602765551526e-14      -1.960819419255e-13       4.086877499062e-16       4.026592913696e-11      -6.861608671711e-12      -5.498676864611e-15 
   80       2.148520535614e-10       2.703204098018e-14      -2.261905653167e-13       4.191416569960e-16       3.905563697182e-11      -6.631890908137e-12      -4.754905332472e-15 
   81       2.169269466025e-10       2.805686014758e-14      -2.572381513006e-13       4.297277761281e-16       3.789507962429e-11      -6.411703483531e-12      -4.008452852745e-15 
   82       2.190182718965e-10       2.910185937171e-14      -2.891772613321e-13       4.404472200501e-16       3.678087113913e-11      -6.200263485126e-12      -3.322748608688e-15 
   83       2.211251859830e-10       3.016675656521e-14      -3.219556186307e-13       4.513012138584e-16       3.570869188964e-11      -5.996598845577e-12      -2.767274432423e-15 
   84       2.232468981637e-10       3.125126582049e-14      -3.555280866845e-13       4.622908579549e-16       3.467433393674e-11      -5.799790775546e-12      -2.401355099221e-15 
   85       2.253840703013e-10       3.235517723516e-14      -3.898951602622e-13       4.734163640565e-16       3.367711552287e-11      -5.609763000839e-12      -2.222047040129e-15 
   86       2.275376179316e-10       3.347828931725e-14      -4.250706558201e-13       4.846776983959e-16       3.271696888531e-11      -5.426610779658e-12      -2.207900805200e-15 
   87       2.297082766829e-10       3.462038480536e-14      -4.610702525401e-13       4.960748105077e-16       3.179339126365e-11      -5.250359951568e-12      -2.334488906891e-15 
   88       2.318965921670e-10       3.578123051181e-14      -4.979115707159e-13       5.076076327046e-16       3.090542687489e-11      -5.080963937341e-12      -2.574310507129e-15 
   89       2.341029098688e-10       3.696057716566e-14      -5.356142501402e-13       5.192760795539e-16       3.005164888843e-11      -4.918300738811e-12      -2.896696104388e-15 
   90       2.363273650366e-10       3.815815925589e-14      -5.742000284919e-13       5.310800473537e-16       2.923014140115e-11      -4.762169938715e-12      -3.267712220765e-15 
   91       2.385698725729e-10       3.937369487446e-14      -6.136928197223e-13       5.430194136097e-16       2.843848141243e-11      -4.612289700549e-12      -3.650066089050e-15 
   92       2.408301169241e-10       4.060688555941e-14      -6.541187924426e-13       5.550940365108e-16       2.767372079918e-11      -4.468293768411e-12      -4.003010339805e-15 
   93       2.431077917474e-10       4.185741479213e-14      -6.954995082373e-13       5.673036749267e-16       2.693308477129e-11      -4.329816446927e-12      -4.290891994735e-15 
   94       2.454033821037e-10       4.312494357141e-14      -7.378299858419e-13       5.796477357727e-16       2.621622655321e-11      -4.196768677684e-12      -4.510477265155e-15 
   95       2.477174817620e-10       4.440911388055e-14      -7.810974673946e-13       5.921254875029e-16       2.552328005818e-11      -4.069098130939e-12      -4.667579303540e-15 
   96       2.500505473135e-10       4.570954980082e-14      -8.252880478961e-13       6.047361346118e-16       2.485416554246e-11      -3.946703156778e-12      -4.768803108440e-15 
   97       2.524028914905e-10       4.702585733614e-14      -8.703866583314e-13       6.174788160194e-16       2.420858141540e-11      -3.829430992656e-12      -4.821568870529e-15 
   98       2.547746764851e-10       4.835762423767e-14      -9.163770487918e-13       6.303526034562e-16       2.358599604948e-11      -3.717075970937e-12      -4.834135318655e-15 
   99       2.571659072683e-10       4.970441982843e-14      -9.632417715956e-13       6.433564998490e-16       2.298563959039e-11      -3.609377726422e-12      -4.815623065890e-15 
  100       2.595764249089e-10       5.106579482794e-14      -1.010962164411e-12       6.564894377061e-16       2.240649576705e-11      -3.506019403893e-12      -4.776037955574e-15 
  101       2.620058998923e-10       5.244128117687e-14      -1.059518333376e-12       6.697502775026e-16       2.184729370164e-11      -3.406625865646e-12      -4.726294407368e-15 
  102       2.644538254394e-10       5.383039186163e-14      -1.108889136222e-12       6.831378060660e-16       2.130649971969e-11      -3.310761899030e-12      -4.678238763299e-15 
  103       2.669195108254e-10       5.523262073898e-14      -1.159052165394e-12       6.966507349610e-16       2.078230916013e-11      -3.217930423979e-12      -4.644672633814e-15 
  104       2.694023258597e-10       5.664743197680e-14      -1.209984685586e-12       7.102880582502e-16       2.027305598843e-11      -3.127681271493e-12      -4.636619869318e-15 
  105       2.719024863267e-10       5.807422712939e-14      -1.261666626933e-12       7.240501842920e-16       1.977852229356e-11      -3.039958114906e-12      -4.654656725095e-15 
  106       2.744203626851e-10       5.951237326685e-14      -1.314077966571e-12       7.379379545329e-16       1.929879124005e-11      -2.954795280480e-12      -4.696448599620e-15 
  107       2.769562345078e-10       6.096121267583e-14      -1.367197804019e-12       7.519523000931e-16       1.883384150602e-11      -2.872210791045e-12      -4.759394965368e-15 
