# dimensionless total lensed [l(l+1)/2pi] C_l's
# for l=2 to 2500, i.e. number of multipoles equal to 2499
#
# -> if you prefer output in CAMB/HealPix/LensPix units/order, set 'format' to 'camb' in input file
# -> if you don't want to see such a header, set 'headers' to 'no' in input file
# -> for CMB lensing (phi), these are C_l^phi-phi for the lensing potential.
#    Remember the conversion factors:
#    C_l^dd (deflection) = l(l+1) C_l^phi-phi
#    C_l^gg (shear/convergence) = 1/4 (l(l+1))^2 C_l^phi-phi
#
# 1:l     2:TT                     3:EE                     4:TE                     5:BB                     6:phiphi                 7:TPhi                   8:Ephi               
    2       5.960177917376e-10       3.371951675052e-15       8.140137697099e-13       3.632845410967e-19       2.282682538938e-08      -2.980315112093e-09      -2.235558110839e-12 
    3       4.317895580197e-10       6.756795983545e-15       8.096724914725e-13       7.269481039660e-19       1.452416595686e-08      -1.937164083814e-09      -1.867912384895e-12 
    4       3.439064928453e-10       1.029835181759e-14       7.854682815194e-13       1.212413183955e-18       1.013509657790e-08      -1.389811923289e-09      -1.603360715653e-12 
    5       2.896283431305e-10       1.300684663939e-14       7.429070691730e-13       1.820159574337e-18       7.526666143363e-09      -1.059936502095e-09      -1.373330171710e-12 
    6       2.528591176318e-10       1.427619145437e-14       6.847222581033e-13       2.550765470469e-18       5.846394817429e-09      -8.419857579466e-10      -1.155255353602e-12 
    7       2.264660063378e-10       1.401271902654e-14       6.181611064752e-13       3.404893863246e-18       4.699726919102e-09      -6.889483703585e-10      -9.500635612236e-13 
    8       2.067693398758e-10       1.249740540745e-14       5.487931903568e-13       4.383276950053e-18       3.879478702191e-09      -5.764606470329e-10      -7.606161351799e-13 
    9       1.916267467278e-10       1.021680624450e-14       4.806470476405e-13       5.486698942353e-18       3.268175815331e-09      -4.907426191722e-10      -5.892665348918e-13 
   10       1.797528939824e-10       7.696339816721e-15       4.163573601640e-13       6.715977692529e-18       2.795830093480e-09      -4.235350241906e-10      -4.376626449187e-13 
   11       1.703819937420e-10       5.373166753904e-15       3.575045096588e-13       8.071945597274e-18       2.081453368330e-09      -3.499701542377e-10      -3.075182120904e-13 
   12       1.628431040250e-10       3.526545137987e-15       3.051663689062e-13       9.555430259509e-18       1.800414678297e-09      -3.070684465708e-10      -1.983423471558e-13 
   13       1.567686993645e-10       2.263858284919e-15       2.599892005449e-13       1.116723540475e-17       1.572282617406e-09      -2.714767068607e-10      -1.090526178838e-13 
   14       1.518810961072e-10       1.548726582010e-15       2.222502648103e-13       1.290812255013e-17       1.384460818646e-09      -2.417708429653e-10      -3.973563188357e-14 
   15       1.479071944457e-10       1.252602282636e-15       1.920650663443e-13       1.477879391442e-17       1.227924223033e-09      -2.165530248858e-10       1.159972568341e-14 
   16       1.447275873296e-10       1.211507803384e-15       1.692759271529e-13       1.677987703523e-17       1.096050169983e-09      -1.950287173321e-10       4.629795358960e-14 
   17       1.421619732642e-10       1.273634574439e-15       1.534277858792e-13       1.891191152441e-17       9.839023046376e-10      -1.764229108355e-10       6.666458921269e-14 
   18       1.400960800878e-10       1.325353865222e-15       1.438138199956e-13       2.117533749331e-17       8.872558873411e-10      -1.602672554153e-10       7.500320479560e-14 
   19       1.385099730244e-10       1.324220122180e-15       1.398742012797e-13       2.357049194269e-17       8.046098041491e-10      -1.463196580821e-10       7.339064272063e-14 
   20       1.372804687799e-10       1.251716636123e-15       1.404892279672e-13       2.609759429925e-17       7.322913397821e-10      -1.339608397655e-10       6.487228205800e-14 
   21       1.363681070963e-10       1.133049059687e-15       1.447736815656e-13       2.875675928016e-17       6.690162371070e-10      -1.230076281495e-10       5.151624432669e-14 
   22       1.357009129645e-10       1.013444499594e-15       1.516074421335e-13       3.154798129005e-17       6.132122862129e-10      -1.132457422874e-10       3.547573604353e-14 
   23       1.352765029388e-10       9.243681844122e-16       1.601610866042e-13       3.447116002709e-17       5.640160625623e-10      -1.045690401092e-10       1.844084540891e-14 
   24       1.350701473973e-10       8.912861501455e-16       1.695408784506e-13       3.752608465060e-17       5.201680875396e-10      -9.679446192859e-11       2.068887170602e-15 
   25       1.350491714122e-10       9.165348700179e-16       1.790986421833e-13       4.071247640344e-17       4.810896776971e-10      -8.980562042948e-11      -1.260405664664e-14 
   26       1.351554673006e-10       9.904227438320e-16       1.882198943334e-13       4.402996696374e-17       4.460199736608e-10      -8.344600408708e-11      -2.477673483097e-14 
   27       1.353923519221e-10       1.093105036845e-15       1.965703772204e-13       4.747814452878e-17       4.144944150243e-10      -7.767029180954e-11      -3.403510900116e-14 
   28       1.357637861689e-10       1.200552839505e-15       2.039168768182e-13       5.105654286456e-17       3.859232059808e-10      -7.242681310310e-11      -4.019201759684e-14 
   29       1.362715124244e-10       1.303036110995e-15       2.101949437326e-13       5.476473014628e-17       3.601339967592e-10      -6.769023474495e-11      -4.330606234151e-14 
   30       1.368938143118e-10       1.394156277634e-15       2.154166843664e-13       5.860224655210e-17       3.368228377833e-10      -6.339435686167e-11      -4.365265529728e-14 
   31       1.375912966752e-10       1.469243630950e-15       2.196434564009e-13       6.256861724696e-17       3.154806123305e-10      -5.943607220279e-11      -4.167009191658e-14 
   32       1.383625418236e-10       1.535835795636e-15       2.230204328263e-13       6.666348833119e-17       2.959809148465e-10      -5.579589415117e-11      -3.778942808932e-14 
   33       1.392053259097e-10       1.607449008908e-15       2.257626731415e-13       7.088654915014e-17       2.781717235875e-10      -5.245528999892e-11      -3.256743519971e-14 
   34       1.401071950504e-10       1.698345904055e-15       2.281200756580e-13       7.523753431295e-17       2.617862880365e-10      -4.937476495715e-11      -2.666134013703e-14 
   35       1.410694847454e-10       1.813849455407e-15       2.302700805389e-13       7.971633420623e-17       2.467302942269e-10      -4.653792558573e-11      -2.053813748488e-14 
   36       1.420892968827e-10       1.956732191050e-15       2.323915349319e-13       8.432293594008e-17       2.328722625562e-10      -4.391863636808e-11      -1.467729480118e-14 
   37       1.431572073897e-10       2.128895608331e-15       2.346596937600e-13       8.905742010926e-17       2.200192724007e-10      -4.147967754840e-11      -9.565684570990e-15 
   38       1.442753516715e-10       2.328432168007e-15       2.371264594548e-13       9.392002118225e-17       2.081321436747e-10      -3.921530946070e-11      -5.397023989482e-15 
   39       1.454437189052e-10       2.551486560870e-15       2.398000744102e-13       9.891110268411e-17       1.971680474862e-10      -3.712031688649e-11      -2.274988610039e-15 
   40       1.466543078842e-10       2.792930174722e-15       2.426754912889e-13       1.040311534498e-16       1.870152488863e-10      -3.517723397566e-11      -2.917737875305e-16 
   41       1.478955998232e-10       3.047755474573e-15       2.457202146782e-13       1.092807799492e-16       1.775308716397e-10      -3.336251286541e-11       5.060407251601e-16 
   42       1.491696112745e-10       3.316014770027e-15       2.488294960942e-13       1.146606568467e-16       1.686833419295e-10      -3.167003637065e-11       2.296140360434e-16 
   43       1.504790738646e-10       3.599342354787e-15       2.518543036129e-13       1.201715767390e-16       1.604462577424e-10      -3.009344482536e-11      -9.252253625256e-16 
   44       1.518222427862e-10       3.899626012154e-15       2.546107069437e-13       1.258144745654e-16       1.527557370250e-10      -2.861898061175e-11      -2.703756143479e-15 
   45       1.531951152923e-10       4.218482634016e-15       2.569025800771e-13       1.315903569283e-16       1.455325475709e-10      -2.723013210677e-11      -4.828904396166e-15 
   46       1.545998726375e-10       4.555463629452e-15       2.586030348174e-13       1.375000447115e-16       1.387633790202e-10      -2.592458743862e-11      -7.132764072303e-15 
   47       1.560382433055e-10       4.909337910335e-15       2.595935559815e-13       1.435443680573e-16       1.324388201687e-10      -2.470136295724e-11      -9.457991094427e-15 
   48       1.575088177940e-10       5.278568361065e-15       2.597404275778e-13       1.497242427969e-16       1.265288883643e-10      -2.355574777769e-11      -1.161950482349e-14 
   49       1.590067782405e-10       5.661295437510e-15       2.588939479180e-13       1.560406744366e-16       1.209815074019e-10      -2.247902481251e-11      -1.340304402369e-14 
   50       1.605261244898e-10       6.055915507970e-15       2.569197260007e-13       1.624946406968e-16       1.157378811282e-10      -2.146113931839e-11      -1.461222290437e-14 
   51       1.620676919100e-10       6.463038995666e-15       2.538044064485e-13       1.690866922924e-16       1.107870650966e-10      -2.050020567568e-11      -1.522810734062e-14 
   52       1.636328425630e-10       6.884035401651e-15       2.495772856820e-13       1.758172506787e-16       1.061235767184e-10      -1.959509890412e-11      -1.529045771057e-14 
   53       1.652210097087e-10       7.320496329543e-15       2.442814464825e-13       1.826867183401e-16       1.017310844412e-10      -1.874259575339e-11      -1.485383302817e-14 
   54       1.668295449101e-10       7.774247072322e-15       2.379744828108e-13       1.896954770602e-16       9.758168073540e-11      -1.793723444204e-11      -1.398842926454e-14 
   55       1.684551750020e-10       8.247078512737e-15       2.307202135381e-13       1.968437927830e-16       9.364422582806e-11      -1.717294018997e-11      -1.277745953483e-14 
   56       1.700991471124e-10       8.739838287610e-15       2.225597525982e-13       2.041315064761e-16       8.991347169347e-11      -1.644869602309e-11      -1.130661201295e-14 
   57       1.717630939674e-10       9.253134144417e-15       2.135345216167e-13       2.115582634426e-16       8.638689966623e-11      -1.576403504007e-11      -9.673441522340e-15 
   58       1.734474477996e-10       9.787594521619e-15       2.036949969373e-13       2.191235947516e-16       8.305591810706e-11      -1.511732813639e-11      -7.991286495358e-15 
   59       1.751513501750e-10       1.034386923859e-14       1.931010833593e-13       2.268269118696e-16       7.990548879525e-11      -1.450571254049e-11      -6.389972562205e-15 
   60       1.768725618202e-10       1.092263018553e-14       1.818224878743e-13       2.346675012926e-16       7.691375332109e-11      -1.392502034986e-11      -5.016516139812e-15 
   61       1.786085984853e-10       1.152443108238e-14       1.699184989324e-13       2.426445628568e-16       7.405802261365e-11      -1.337092258836e-11      -4.002112655539e-15 
   62       1.803606404619e-10       1.214924841025e-14       1.573711749360e-13       2.507573468671e-16       7.133516175823e-11      -1.284282313146e-11      -3.352850666014e-15 
   63       1.821303445783e-10       1.279683819241e-14       1.441377541410e-13       2.590050383625e-16       6.874513862016e-11      -1.234071597804e-11      -3.035604242907e-15 
   64       1.839186453429e-10       1.346686412588e-14       1.301696516325e-13       2.673867122484e-16       6.628489615936e-11      -1.186401461081e-11      -3.009224808506e-15 
   65       1.857257036727e-10       1.415889379966e-14       1.154121796160e-13       2.759013293145e-16       6.394818072024e-11      -1.141151909996e-11      -3.224174961578e-15 
   66       1.875508556212e-10       1.487239491304e-14       9.980426770700e-14       2.845477322518e-16       6.172537032165e-11      -1.098138320681e-11      -3.622162303218e-15 
   67       1.893925611071e-10       1.560673149390e-14       8.327818322130e-14       2.933246416703e-16       5.960330294677e-11      -1.057108148753e-11      -4.135773262703e-15 
   68       1.912491899990e-10       1.636132182752e-14       6.577003800807e-14       3.022308686276e-16       5.756875701604e-11      -1.017807712682e-11      -4.698336345977e-15 
   69       1.931216799406e-10       1.713615785618e-14       4.725440637828e-14       3.112660111225e-16       5.562009556318e-11      -9.802056109429e-12      -5.276651152369e-15 
   70       1.950113274386e-10       1.793138471352e-14       2.771625142605e-14       3.204298922235e-16       5.375768384902e-11      -9.443088734217e-12      -5.844263777683e-15 
   71       1.969189688354e-10       1.874714867370e-14       7.140755355657e-15       3.297223575711e-16       5.198036903867e-11      -9.100954232631e-12      -6.371721489121e-15 
   72       1.988449504532e-10       1.958359750550e-14      -1.448668435754e-14       3.391432769335e-16       5.028540189761e-11      -8.775125793848e-12      -6.826468173205e-15 
   73       2.007890987380e-10       2.044088082645e-14      -3.718045880633e-14       3.486925457606e-16       4.866835848788e-11      -8.464755589937e-12      -7.172739783688e-15 
   74       2.027506904038e-10       2.131915045692e-14      -6.095475149076e-14       3.583700867394e-16       4.712306186418e-11      -8.168659801017e-12      -7.371459789470e-15 
   75       2.047284225764e-10       2.221856077425e-14      -8.582354215729e-14       3.681758513485e-16       4.564150377004e-11      -7.885303640415e-12      -7.380134622516e-15 
   76       2.067209816287e-10       2.313922349096e-14      -1.117943260496e-13       3.781099172200e-16       4.421581947803e-11      -7.613165780710e-12      -7.166632984819e-15 
   77       2.087289354370e-10       2.408106168631e-14      -1.388479409111e-13       3.881727972856e-16       4.284480115905e-11      -7.351941455414e-12      -6.753655791140e-15 
   78       2.107531335477e-10       2.504392967638e-14      -1.669550512231e-13       3.983651900914e-16       4.152843551334e-11      -7.101532561715e-12      -6.182223260655e-15 
   79       2.127941218030e-10       2.602765565748e-14      -1.960819834374e-13       4.086878924548e-16       4.026592037901e-11      -6.861680644146e-12      -5.498687700035e-15 
   80       2.148521247620e-10       2.703204112571e-14      -2.261906009449e-13       4.191418029836e-16       3.905562852960e-11      -6.631959699664e-12      -4.754913651139e-15 
   81       2.169270281213e-10       2.805686029644e-14      -2.572381790440e-13       4.297279255958e-16       3.789507147157e-11      -6.411768982735e-12      -4.008458038700e-15 
   82       2.190183611354e-10       2.910185952394e-14      -2.891772799097e-13       4.404473730387e-16       3.678086324184e-11      -6.200325810409e-12      -3.322750318022e-15 
   83       2.211252790380e-10       3.016675672084e-14      -3.219556275614e-13       4.513013704086e-16       3.570868420532e-11      -5.996658367404e-12      -2.767272622667e-15 
   84       2.232469900614e-10       3.125126597955e-14      -3.555280862233e-13       4.622910181073e-16       3.467432641665e-11      -5.799848081771e-12      -2.401350003635e-15 
   85       2.253841563421e-10       3.235517739768e-14      -3.898951508735e-13       4.734165278513e-16       3.367710812277e-11      -5.609818678974e-12      -2.222038964165e-15 
   86       2.275376941049e-10       3.347828948325e-14      -4.250706380416e-13       4.846778658731e-16       3.271696156897e-11      -5.426665352926e-12      -2.207890072847e-15 
   87       2.297083397543e-10       3.462038497488e-14      -4.610702269853e-13       4.960749817071e-16       3.179338400388e-11      -5.250413869543e-12      -2.334475860381e-15 
   88       2.318966397673e-10       3.578123068487e-14      -4.979115380777e-13       5.076078076657e-16       3.090541965456e-11      -5.081017566286e-12      -2.574295506622e-15 
   89       2.341029405866e-10       3.696057734229e-14      -5.356142111939e-13       5.192762583159e-16       3.005164170155e-11      -4.918354351707e-12      -2.896679527620e-15 
   90       2.363273785135e-10       3.815815943612e-14      -5.741999840980e-13       5.310802299554e-16       2.923013425399e-11      -4.762223704991e-12      -3.267694462668e-15 
   91       2.385698696007e-10       3.937369505832e-14      -6.136927708302e-13       5.430196000895e-16       2.843847432461e-11      -4.612343675502e-12      -3.650047561345e-15 
   92       2.408300995455e-10       4.060688574693e-14      -6.541187400935e-13       5.550942269067e-16       2.767371380489e-11      -4.468347882329e-12      -4.002991470558e-15 
   93       2.431077630980e-10       4.185741498333e-14      -6.954994535480e-13       5.673038692766e-16       2.693307791690e-11      -4.329870518538e-12      -4.290873220136e-15 
   94       2.454033454279e-10       4.312494376632e-14      -7.378299299255e-13       5.796479341146e-16       2.621621988367e-11      -4.196822505451e-12      -4.510458996660e-15 
   95       2.477174401352e-10       4.440911407919e-14      -7.810974113347e-13       5.921256898757e-16       2.552327361300e-11      -4.069151517707e-12      -4.667561915866e-15 
   96       2.500505036137e-10       4.570955000323e-14      -8.252879927399e-13       6.047363410551e-16       2.485415935512e-11      -3.946755910871e-12      -4.768786934856e-15 
   97       2.524028483686e-10       4.702585754234e-14      -8.703866050822e-13       6.174790265733e-16       2.420857551272e-11      -3.829482928999e-12      -4.821554198007e-15 
   98       2.547746363347e-10       4.835762444769e-14      -9.163769984010e-13       6.303528181619e-16       2.358599045097e-11      -3.717126912216e-12      -4.834122382886e-15 
   99       2.571658721947e-10       4.970442004231e-14      -9.632417249556e-13       6.433567187485e-16       2.298563430758e-11      -3.609427504280e-12      -4.815612046159e-15 
  100       2.595763966965e-10       5.106579504572e-14      -1.010962122346e-12       6.564896608423e-16       2.240649080282e-11      -3.506067860158e-12      -4.776028969507e-15 
  101       2.620058799722e-10       5.244128139857e-14      -1.059518296636e-12       6.697505049195e-16       2.184728904953e-11      -3.406672853593e-12      -4.726287505534e-15 
  102       2.644538148552e-10       5.383039208729e-14      -1.108889105471e-12       6.831380378084e-16       2.130649536319e-11      -3.310807284675e-12      -4.678233923684e-15 
  103       2.669195101986e-10       5.523262096865e-14      -1.159052141204e-12       6.966509710752e-16       2.078230507190e-11      -3.217974087412e-12      -4.644669756148e-15 
  104       2.694023354145e-10       5.664743221051e-14      -1.209984668432e-12       7.102882987835e-16       2.027305213226e-11      -3.127723108497e-12      -4.636618785289e-15 
  105       2.719025061035e-10       5.807422736719e-14      -1.261666617204e-12       7.240504292919e-16       1.977851863449e-11      -3.039998039401e-12      -4.654657258929e-15 
  106       2.744203925890e-10       5.951237350878e-14      -1.314077964569e-12       7.379382040476e-16       1.929878774741e-11      -2.954833226322e-12      -4.696450584871e-15 
  107       2.769562742992e-10       6.096121292193e-14      -1.367197809949e-12       7.519525541710e-16       1.883383815384e-11      -2.872246713610e-12      -4.759398246346e-15 
