# dimensionless total [l(l+1)/2pi] C_l's
# for l=2 to 3000, i.e. number of multipoles equal to 2999
#
# -> if you prefer output in CAMB/HealPix/LensPix units/order, set 'format' to 'camb' in input file
# -> if you don't want to see such a header, set 'headers' to 'no' in input file
# -> for CMB lensing (phi), these are C_l^phi-phi for the lensing potential.
#    Remember the conversion factors:
#    C_l^dd (deflection) = l(l+1) C_l^phi-phi
#    C_l^gg (shear/convergence) = 1/4 (l(l+1))^2 C_l^phi-phi
#
# 1:l     2:TT                     3:EE                     4:TE                     5:BB                     6:phiphi                 7:TPhi                   8:Ephi               
    2       5.960172529168e-10       3.371588390158e-15       8.140137806080e-13       0.000000000000e+00       2.282682499113e-08      -2.980315395763e-09      -2.235558110839e-12 
    3       4.317884394821e-10       6.756069031954e-15       8.096725396900e-13       0.000000000000e+00       1.452416694460e-08      -1.937164267314e-09      -1.867912384960e-12 
    4       3.439045953873e-10       1.029713938725e-14       7.854684191182e-13       0.000000000000e+00       1.013509830865e-08      -1.389812435068e-09      -1.603360715667e-12 
    5       2.896254325727e-10       1.300502642096e-14       7.429073797674e-13       0.000000000000e+00       7.526667666999e-09      -1.059936994156e-09      -1.373330171470e-12 
    6       2.528549692397e-10       1.427364052806e-14       6.847228611441e-13       0.000000000000e+00       5.846395690858e-09      -8.419860512449e-10      -1.155255353541e-12 
    7       2.264603295154e-10       1.400931375747e-14       6.181621611847e-13       0.000000000000e+00       4.699727455213e-09      -6.889485644146e-10      -9.500635617083e-13 
    8       2.067618388115e-10       1.249302135232e-14       5.487948984769e-13       0.000000000000e+00       3.879479226902e-09      -5.764607245013e-10      -7.606161353189e-13 
    9       1.916172033737e-10       1.021131807246e-14       4.806496511245e-13       0.000000000000e+00       3.268176026924e-09      -4.907428021286e-10      -5.892665343458e-13 
   10       1.797410165765e-10       7.689621247779e-15       4.163611380867e-13       0.000000000000e+00       2.795830134331e-09      -4.235353315368e-10      -4.376626447007e-13 
   11       1.703674228438e-10       5.365090518123e-15       3.575097766725e-13       0.000000000000e+00       2.081453872728e-09      -3.499701973259e-10      -3.075182125452e-13 
   12       1.628255208543e-10       3.516982958759e-15       3.051734701021e-13       0.000000000000e+00       1.800415183867e-09      -3.070684145546e-10      -1.983423472421e-13 
   13       1.567478196170e-10       2.252680889216e-15       2.599985033921e-13       0.000000000000e+00       1.572283085827e-09      -2.714766198094e-10      -1.090526179181e-13 
   14       1.518565970311e-10       1.535803739994e-15       2.222621521299e-13       0.000000000000e+00       1.384461222003e-09      -2.417707685467e-10      -3.973563186569e-14 
   15       1.478787558506e-10       1.237802878226e-15       1.920799301058e-13       0.000000000000e+00       1.227924566926e-09      -2.165530067711e-10       1.159972567012e-14 
   16       1.446949042687e-10       1.194699936355e-15       1.692941614497e-13       0.000000000000e+00       1.096050465595e-09      -1.950287406871e-10       4.629795355861e-14 
   17       1.421247415666e-10       1.254685693419e-15       1.534497796540e-13       0.000000000000e+00       9.839025590537e-10      -1.764229330070e-10       6.666458923826e-14 
   18       1.400540247003e-10       1.304130929201e-15       1.438399521871e-13       0.000000000000e+00       8.872561039531e-10      -1.602672690988e-10       7.500320481559e-14 
   19       1.384628281797e-10       1.300589789236e-15       1.399048382403e-13       0.000000000000e+00       8.046099850605e-10      -1.463196805577e-10       7.339064269636e-14 
   20       1.372279735935e-10       1.225545470023e-15       1.405247199608e-13       0.000000000000e+00       7.322914871336e-10      -1.339608989917e-10       6.487228203770e-14 
   21       1.363100391501e-10       1.104203748618e-15       1.448143648173e-13       0.000000000000e+00       6.690163542118e-10      -1.230077216352e-10       5.151624433913e-14 
   22       1.356371003677e-10       9.817920922849e-16       1.516536399588e-13       0.000000000000e+00       6.132123775927e-10      -1.132458281772e-10       3.547573606425e-14 
   23       1.352067989408e-10       8.897763033105e-16       1.602131167520e-13       0.000000000000e+00       5.640161328074e-10      -1.045690973075e-10       1.844084541693e-14 
   24       1.349944230515e-10       8.536232233581e-16       1.695990590531e-13       0.000000000000e+00       5.201681405165e-10      -9.679450894467e-11       2.068887167114e-15 
   25       1.349673244646e-10       8.756702916685e-16       1.791633027866e-13       0.000000000000e+00       4.810897161537e-10      -8.980567912422e-11      -1.260405665467e-14 
   26       1.350674213975e-10       9.462270688947e-16       1.882913860832e-13       0.000000000000e+00       4.460199990300e-10      -8.344608510084e-11      -2.477673483933e-14 
   27       1.352980375215e-10       1.045450081050e-15       1.966490876097e-13       0.000000000000e+00       4.144944287529e-10      -7.767038721077e-11      -3.403510902429e-14 
   28       1.356631351711e-10       1.149311790111e-15       2.040032431817e-13       0.000000000000e+00       3.859232098229e-10      -7.242689709466e-11      -4.019201766575e-14 
   29       1.361644760846e-10       1.248083413183e-15       2.102894677893e-13       0.000000000000e+00       3.601339923620e-10      -6.769029076355e-11      -4.330606245760e-14 
   30       1.367803692265e-10       1.335367674955e-15       2.155199474657e-13       0.000000000000e+00       3.368228264274e-10      -6.339438979483e-11      -4.365265540935e-14 
   31       1.374714392715e-10       1.406496163121e-15       2.197561335516e-13       0.000000000000e+00       3.154805948690e-10      -5.943610725258e-11      -4.167009192922e-14 
   32       1.382362598778e-10       1.469007422505e-15       2.231433000706e-13       0.000000000000e+00       2.959808921338e-10      -5.579594992655e-11      -3.778942794822e-14 
   33       1.390725833480e-10       1.536418449790e-15       2.258966208127e-13       0.000000000000e+00       2.781716965926e-10      -5.245536741089e-11      -3.256743493053e-14 
   34       1.399679273221e-10       1.622992466140e-15       2.282661198167e-13       0.000000000000e+00       2.617862578134e-10      -4.937484793488e-11      -2.666133983991e-14 
   35       1.409236130878e-10       1.734052536065e-15       2.304293587399e-13       0.000000000000e+00       2.467302618439e-10      -4.653800098490e-11      -2.053813723871e-14 
   36       1.419367296495e-10       1.872370957874e-15       2.325653132327e-13       0.000000000000e+00       2.328722290465e-10      -4.391870148507e-11      -1.467729462585e-14 
   37       1.429978362650e-10       2.039848707521e-15       2.348493694419e-13       0.000000000000e+00       2.200192387117e-10      -4.147973976612e-11      -9.565684429175e-15 
   38       1.441090482481e-10       2.234577312009e-15       2.373335331288e-13       0.000000000000e+00       2.081321105897e-10      -3.921537559668e-11      -5.397023846449e-15 
   39       1.452703306110e-10       2.452700155786e-15       2.400261426413e-13       0.000000000000e+00       1.971680155577e-10      -3.712038946972e-11      -2.274988454410e-15 
   40       1.464736535069e-10       2.689086947789e-15       2.429222470959e-13       0.000000000000e+00       1.870152183714e-10      -3.517731019222e-11      -2.917736369805e-16 
   41       1.477074692910e-10       2.938728185765e-15       2.459894370191e-13       0.000000000000e+00       1.775308424995e-10      -3.336258509859e-11       5.060408284839e-16 
   42       1.489737804369e-10       3.201674269658e-15       2.491230026240e-13       0.000000000000e+00       1.686833140553e-10      -3.167009831306e-11       2.296140658701e-16 
   43       1.502753087596e-10       3.479557365247e-15       2.521739277774e-13       0.000000000000e+00       1.604462310220e-10      -3.009349371776e-11      -9.252254009866e-16 
   44       1.516102999098e-10       3.774262792584e-15       2.549582838150e-13       0.000000000000e+00       1.527557113471e-10      -2.861901802067e-11      -2.703756207225e-15 
   45       1.529747443073e-10       4.087404979931e-15       2.572799263169e-13       0.000000000000e+00       1.455325228294e-10      -2.723016360136e-11      -4.828904407918e-15 
   46       1.543708270948e-10       4.418534038262e-15       2.590119113005e-13       0.000000000000e+00       1.387633551162e-10      -2.592461846512e-11      -7.132763957885e-15 
   47       1.558002858765e-10       4.766417899478e-15       2.600356408631e-13       0.000000000000e+00       1.324387970146e-10      -2.470139745701e-11      -9.457990795788e-15 
   48       1.572617235513e-10       5.129518466366e-15       2.602172925241e-13       0.000000000000e+00       1.265288658895e-10      -2.355578783351e-11      -1.161950430263e-14 
   49       1.587503381503e-10       5.505975214174e-15       2.594070330500e-13       0.000000000000e+00       1.209814855577e-10      -2.247907027468e-11      -1.340304326681e-14 
   50       1.602601492240e-10       5.894183975982e-15       2.574703213285e-13       0.000000000000e+00       1.157378598892e-10      -2.146118794727e-11      -1.461222192493e-14 
   51       1.617920162301e-10       6.294756554458e-15       2.543936578348e-13       0.000000000000e+00       1.107870444454e-10      -2.050025504555e-11      -1.522810617812e-14 
   52       1.633473296526e-10       6.709064678886e-15       2.502061807110e-13       0.000000000000e+00       1.061235566429e-10      -1.959514698893e-11      -1.529045643290e-14 
   53       1.649255556221e-10       7.138702645876e-15       2.449507922349e-13       0.000000000000e+00       1.017310649363e-10      -1.874264102260e-11      -1.485383173522e-14 
   54       1.665240832372e-10       7.585498929595e-15       2.386848827186e-13       0.000000000000e+00       9.758166180496e-11      -1.793727596160e-11      -1.398842809210e-14 
   55       1.681396771235e-10       8.051248185800e-15       2.314720659971e-13       0.000000000000e+00       9.364420748480e-11      -1.717297762886e-11      -1.277745864356e-14 
   56       1.697736074461e-10       8.536802703497e-15       2.233533232921e-13       0.000000000000e+00       8.991345395131e-11      -1.644872933790e-11      -1.130661152819e-14 
   57       1.714275268741e-10       9.042775586596e-15       2.143699588290e-13       0.000000000000e+00       8.638688253842e-11      -1.576406441037e-11      -9.673441511154e-15 
   58       1.731018888234e-10       9.569801286279e-15       2.045723257522e-13       0.000000000000e+00       8.305590160646e-11      -1.511735399384e-11      -7.991286957135e-15 
   59       1.747958573201e-10       1.011853631748e-14       1.940201998261e-13       0.000000000000e+00       7.990547293469e-11      -1.450573559902e-11      -6.389973418802e-15 
   60       1.765072168632e-10       1.068965997537e-14       1.827831531346e-13       0.000000000000e+00       7.691373811374e-11      -1.392504163711e-11      -5.016517225289e-15 
   61       1.782335024807e-10       1.128373333201e-14       1.709203538636e-13       0.000000000000e+00       7.405800807233e-11      -1.337094338362e-11      -4.002113729897e-15 
   62       1.799758902199e-10       1.190073762107e-14       1.584138218094e-13       0.000000000000e+00       7.133514789140e-11      -1.284284459579e-11      -3.352851508210e-15 
   63       1.817360239442e-10       1.254043303844e-14       1.452207863093e-13       0.000000000000e+00       6.874512543055e-11      -1.234073902494e-11      -3.035604681715e-15 
   64       1.835148217960e-10       1.320248761364e-14       1.312926645959e-13       0.000000000000e+00       6.628488364356e-11      -1.186403986368e-11      -3.009224730873e-15 
   65       1.853124247766e-10       1.388647342961e-14       1.165747827019e-13       0.000000000000e+00       6.394816886826e-11      -1.141154684779e-11      -3.224174321320e-15 
   66       1.871281453242e-10       1.459186284251e-14       1.010060963656e-13       0.000000000000e+00       6.172535911652e-11      -1.098141335806e-11      -3.622161130078e-15 
   67       1.889604158934e-10       1.531802470160e-14       8.451891193634e-14       0.000000000000e+00       5.960329236408e-11      -1.057111352215e-11      -4.135771671756e-15 
   68       1.908075777474e-10       1.606438131770e-14       6.704937694690e-14       0.000000000000e+00       5.756874702391e-11      -1.017811014678e-11      -4.698334527162e-15 
   69       1.926705478741e-10       1.683092475247e-14       4.857204406073e-14       0.000000000000e+00       5.562008612348e-11      -9.802089211585e-12      -5.276649294920e-15 
   70       1.945506025652e-10       1.761779883270e-14       2.907184149141e-14       0.000000000000e+00       5.375767491757e-11      -9.443121123222e-12      -5.844262047042e-15 
   71       1.964485556207e-10       1.842514798293e-14       8.533919417453e-15       0.000000000000e+00       5.198036056504e-11      -9.100985240070e-12      -6.371720022751e-15 
   72       1.983647284167e-10       1.925311755646e-14      -1.305635367336e-14       0.000000000000e+00       5.028539382500e-11      -8.775154898165e-12      -6.826467076235e-15 
   73       2.002989199730e-10       2.010185416639e-14      -3.571339463961e-14       0.000000000000e+00       4.866835075288e-11      -8.464782437104e-12      -7.172739124397e-15 
   74       2.022503770211e-10       2.097150601668e-14      -5.945140934185e-14       0.000000000000e+00       4.712305439664e-11      -8.168684225963e-12      -7.371459594606e-15 
   75       2.042177640719e-10       2.186222323316e-14      -8.428439629830e-14       0.000000000000e+00       4.564149649289e-11      -7.885325689208e-12      -7.380134872447e-15 
   76       2.061997411161e-10       2.277411347332e-14      -1.102199009718e-13       0.000000000000e+00       4.421581231011e-11      -7.613185691808e-12      -7.166633618585e-15 
   77       2.081968845122e-10       2.370709867852e-14      -1.372389556627e-13       0.000000000000e+00       4.284479402774e-11      -7.351959507831e-12      -6.753656743664e-15 
   78       2.102100636282e-10       2.466103267995e-14      -1.653124712052e-13       0.000000000000e+00       4.152842835916e-11      -7.101549033261e-12      -6.182224473387e-15 
   79       2.122398470945e-10       2.563574302593e-14      -1.944070393359e-13       0.000000000000e+00       4.026591315746e-11      -6.861695809106e-12      -5.498689122091e-15 
   80       2.142864853322e-10       2.663103039596e-14      -2.244848082019e-13       0.000000000000e+00       3.905562121307e-11      -6.631973826375e-12      -4.754915240478e-15 
   81       2.163498930800e-10       2.764666801467e-14      -2.555033578674e-13       0.000000000000e+00       3.789506405130e-11      -6.411782331061e-12      -4.008459763354e-15 
   82       2.184296319229e-10       2.868240106586e-14      -2.874155758212e-13       0.000000000000e+00       3.678085572994e-11      -6.200338629125e-12      -3.322752157352e-15 
   83       2.205248928193e-10       2.973794610643e-14      -3.201695324843e-13       0.000000000000e+00       3.570867663683e-11      -5.996670891468e-12      -2.767274568674e-15 
   84       2.226349204012e-10       3.081301742627e-14      -3.537204408132e-13       0.000000000000e+00       3.467431884644e-11      -5.799860528744e-12      -2.401352058714e-15 
   85       2.247604049651e-10       3.190741243216e-14      -3.880690858307e-13       0.000000000000e+00       3.367710060548e-11      -5.609831242893e-12      -2.222041127463e-15 
   86       2.269022902820e-10       3.302093941012e-14      -4.232295672670e-13       0.000000000000e+00       3.271695415321e-11      -5.426678200116e-12      -2.207892336199e-15 
   87       2.290613424436e-10       3.415339170688e-14      -4.592178593432e-13       0.000000000000e+00       3.179337673139e-11      -5.250427135040e-12      -2.334478207647e-15 
   88       2.312381398148e-10       3.530454759679e-14      -4.960518893727e-13       0.000000000000e+00       3.090541255937e-11      -5.081031350150e-12      -2.574297913003e-15 
   89       2.334330629860e-10       3.647417014866e-14      -5.337516163621e-13       0.000000000000e+00       3.005163480915e-11      -4.918368715223e-12      -2.896681958957e-15 
   90       2.356462847262e-10       3.766200709262e-14      -5.723391096131e-13       0.000000000000e+00       2.923012758038e-11      -4.762238666753e-12      -3.267696874723e-15 
   91       2.378777599347e-10       3.886779068701e-14      -6.118386273234e-13       0.000000000000e+00       2.843846787544e-11      -4.612359207391e-12      -3.650049899061e-15 
   92       2.401272155946e-10       4.009123758523e-14      -6.522766951883e-13       0.000000000000e+00       2.767370757448e-11      -4.468363905373e-12      -4.002993667302e-15 
   93       2.423943794763e-10       4.133204502113e-14      -6.936751983622e-13       0.000000000000e+00       2.693307188966e-11      -4.329886909332e-12      -4.290875200823e-15 
   94       2.446797274215e-10       4.258987899822e-14      -7.360292981380e-13       0.000000000000e+00       2.621621404298e-11      -4.196839136300e-12      -4.510460693245e-15 
   95       2.469838303973e-10       4.386438406969e-14      -7.793263238067e-13       0.000000000000e+00       2.552326794371e-11      -4.069168267936e-12      -4.667563272303e-15 
   96       2.493071190791e-10       4.515518668040e-14      -8.235524462883e-13       0.000000000000e+00       2.485415384375e-11      -3.946772667945e-12      -4.768787908352e-15 
   97       2.516498770807e-10       4.646189498319e-14      -8.686926608284e-13       0.000000000000e+00       2.420857014771e-11      -3.829499589682e-12      -4.821554760315e-15 
   98       2.540122341840e-10       4.778409865526e-14      -9.147307696956e-13       0.000000000000e+00       2.358598522293e-11      -3.717143383761e-12      -4.834122521630e-15 
   99       2.563941595684e-10       4.912136871441e-14      -9.616493648781e-13       0.000000000000e+00       2.298562920950e-11      -3.609443705656e-12      -4.815611766196e-15 
  100       2.587954550417e-10       5.047325733545e-14      -1.009429810781e-12       0.000000000000e+00       2.240648583033e-11      -3.506083723303e-12      -4.776028294318e-15 
  101       2.612157482687e-10       5.183929766652e-14      -1.058052226922e-12       0.000000000000e+00       2.184728420117e-11      -3.406688324713e-12      -4.726286478660e-15 
  102       2.636544860020e-10       5.321900364535e-14      -1.107495470629e-12       0.000000000000e+00       2.130649064066e-11      -3.310822325566e-12      -4.678232610184e-15 
  103       2.661109273114e-10       5.461186981568e-14      -1.157737119739e-12       0.000000000000e+00       2.078230048036e-11      -3.217988676825e-12      -4.644668244103e-15 
  104       2.685843998380e-10       5.601736001864e-14      -1.208754458482e-12       0.000000000000e+00       2.027304767967e-11      -3.127737240497e-12      -4.636617181491e-15 
  105       2.710751225623e-10       5.743487212295e-14      -1.260527624088e-12       0.000000000000e+00       1.977851432819e-11      -3.040011712228e-12      -4.654655666176e-15 
  106       2.735834820764e-10       5.886376816567e-14      -1.313036854964e-12       0.000000000000e+00       1.929878359307e-11      -2.954846439524e-12      -4.696449095230e-15 
  107       2.761097756509e-10       6.030338474947e-14      -1.366261519257e-12       0.000000000000e+00       1.883383415537e-11      -2.872259468099e-12      -4.759396939998e-15 
