# Matter power spectrum P(k) at redshift z=0
# for k=0.000781346 to 164.872 h/Mpc,
# number of wavenumbers equal to 514
#    1:k (h/Mpc)              2:P (Mpc/h)^3        
       7.813463254755e-04       1.745157842414e-04 
       6.171670898947e-03       1.273940679046e-03 
       1.871196237630e-02       3.699360920538e-03 
       3.154457095005e-02       6.102800509158e-03 
       4.440122266729e-02       8.458063397931e-03 
       5.726457508715e-02       1.077046463534e-02 
       7.013083543414e-02       1.304341850137e-02 
       8.299871433411e-02       1.527899759092e-02 
       9.586765831351e-02       1.747846076447e-02 
       1.087373929918e-01       1.964264469285e-02 
       1.216077687115e-01       2.177216268850e-02 
       1.344786983869e-01       2.386751383218e-02 
       1.473501291599e-01       2.592885154459e-02 
       1.602220282054e-01       2.795677981730e-02 
       1.730943750821e-01       2.995165339740e-02 
       1.859671573617e-01       3.191380662361e-02 
       1.988403680074e-01       3.384356028123e-02 
       2.117140037365e-01       3.574123411396e-02 
       2.245880639624e-01       3.760715543285e-02 
       2.374625500909e-01       3.944165251626e-02 
       2.503374650389e-01       4.124506142223e-02 
       2.632128128999e-01       4.301772396452e-02 
       2.760885987051e-01       4.475998479281e-02 
       2.889648282512e-01       4.647221185722e-02 
       3.018415079741e-01       4.815476125907e-02 
       3.147186448551e-01       4.980799598299e-02 
       3.275962463503e-01       5.143229170012e-02 
       3.404743203374e-01       5.302801285570e-02 
       3.533528750756e-01       5.459586533727e-02 
       3.662319191743e-01       5.613572741418e-02 
       3.791114615694e-01       5.764784942949e-02 
       3.919915115057e-01       5.913273572614e-02 
       4.048720785229e-01       6.059143699380e-02 
       4.177531724451e-01       6.202351950806e-02 
       4.306348033738e-01       6.342978738384e-02 
       4.435169816821e-01       6.480946438658e-02 
       4.563997180112e-01       6.616420867882e-02 
       4.692830232680e-01       6.749399190481e-02 
       4.821669086247e-01       6.879910043619e-02 
       4.950513855178e-01       7.007993675757e-02 
       5.079364656499e-01       7.133670361578e-02 
       5.208221609904e-01       7.256981373841e-02 
       5.337084837783e-01       7.377944559289e-02 
       5.465954465242e-01       7.496614396286e-02 
       5.594830620136e-01       7.613004310052e-02 
       5.723713433107e-01       7.727162725952e-02 
       5.852603037616e-01       7.839104026100e-02 
       5.981499569990e-01       7.948855901325e-02 
       6.110403169466e-01       8.056457937954e-02 
       6.239313978234e-01       8.161928543252e-02 
       6.368232141491e-01       8.265311829720e-02 
       6.497157807492e-01       8.366632755106e-02 
       6.626091127603e-01       8.465909579015e-02 
       6.755032256360e-01       8.563181059336e-02 
       6.883981351525e-01       8.658450046745e-02 
       7.012938574148e-01       8.751773893340e-02 
       7.141904088630e-01       8.843154677557e-02 
       7.270878062784e-01       8.932638726858e-02 
       7.399860667908e-01       9.020221497388e-02 
       7.528852078845e-01       9.105961029072e-02 
       7.657852474058e-01       9.189863975966e-02 
       7.786862035701e-01       9.271959318767e-02 
       7.915880949691e-01       9.352266430789e-02 
       8.044909405787e-01       9.430826685873e-02 
       8.173947597662e-01       9.507607247588e-02 
       8.302995722988e-01       9.582692397284e-02 
       8.432053983511e-01       9.656087230218e-02 
       8.561122585139e-01       9.727769608921e-02 
       8.690201738026e-01       9.797856078028e-02 
       8.819291656656e-01       9.866279733920e-02 
       8.948392559934e-01       9.933128318988e-02 
       9.077504671277e-01       9.998361292931e-02 
       9.206628218707e-01       1.006203543419e-01 
       9.335763434945e-01       1.012412610732e-01 
       9.464910557508e-01       1.018470009107e-01 
       9.594069828812e-01       1.024381007830e-01 
       9.723241496267e-01       1.030134646628e-01 
       9.852425812387e-01       1.035833150197e-01 
       9.981623034892e-01       1.041211159572e-01 
       1.011083342682e+00       1.046531176258e-01 
       1.024005725663e+00       1.051709410236e-01 
       1.036929479833e+00       1.056749543983e-01 
       1.049854633158e+00       1.061649545390e-01 
       1.062781214182e+00       1.066414970825e-01 
       1.075709252037e+00       1.071044155732e-01 
       1.088638776458e+00       1.075539287230e-01 
       1.101569817794e+00       1.079905106037e-01 
       1.114502407024e+00       1.084139095316e-01 
       1.127436575763e+00       1.088244307231e-01 
       1.140372356285e+00       1.092225096757e-01 
       1.153309781529e+00       1.096082913098e-01 
       1.166248885117e+00       1.099809521782e-01 
       1.179189701367e+00       1.103424739171e-01 
       1.192132265309e+00       1.106905720716e-01 
       1.205076612700e+00       1.110273260473e-01 
       1.218022780036e+00       1.113523813252e-01 
       1.230970804574e+00       1.116660010388e-01 
       1.243920724342e+00       1.119681999261e-01 
       1.256872578159e+00       1.122588407467e-01 
       1.269826405652e+00       1.125384524618e-01 
       1.282782247269e+00       1.128070156444e-01 
       1.295740144303e+00       1.130664089785e-01 
       1.308700138905e+00       1.133114259497e-01 
       1.321662274105e+00       1.135476484159e-01 
       1.334626593829e+00       1.137733130856e-01 
       1.347593142919e+00       1.139883859142e-01 
       1.360561967154e+00       1.141936360909e-01 
       1.373533113268e+00       1.143887952605e-01 
       1.386506628973e+00       1.145737397143e-01 
       1.399482562976e+00       1.147490261881e-01 
       1.412460965005e+00       1.149142329279e-01 
       1.425441885830e+00       1.150701880527e-01 
       1.438425377283e+00       1.152163242133e-01 
       1.451411492283e+00       1.153537722718e-01 
       1.464400284861e+00       1.154814729079e-01 
       1.477391810180e+00       1.155999560300e-01 
       1.490386124565e+00       1.157093282799e-01 
       1.503383285523e+00       1.158101681018e-01 
       1.516383351772e+00       1.159019320085e-01 
       1.529386383269e+00       1.159855569032e-01 
       1.542392441233e+00       1.160606609157e-01 
       1.555401588174e+00       1.161272069259e-01 
       1.568413887924e+00       1.161853984563e-01 
       1.581429405663e+00       1.162354683870e-01 
       1.594448207949e+00       1.162772951589e-01 
       1.607470362751e+00       1.163113314781e-01 
       1.620495939478e+00       1.163374478837e-01 
       1.633525009011e+00       1.163556803335e-01 
       1.646557643736e+00       1.163665982488e-01 
       1.659593917577e+00       1.163696089936e-01 
       1.672633906033e+00       1.163651891250e-01 
       1.685677686208e+00       1.163536766974e-01 
       1.698725336852e+00       1.163348935651e-01 
       1.711776938396e+00       1.163089295016e-01 
       1.724832572986e+00       1.162760804519e-01 
       1.737892324530e+00       1.162360628784e-01 
       1.750956278728e+00       1.161896361945e-01 
       1.764024523121e+00       1.161361564970e-01 
       1.777097147127e+00       1.160759338367e-01 
       1.790174242085e+00       1.160095378970e-01 
       1.803255901301e+00       1.159363922894e-01 
       1.816342220089e+00       1.158573489219e-01 
       1.829433295819e+00       1.157715045047e-01 
       1.842529227965e+00       1.156801090325e-01 
       1.855630118152e+00       1.155823395217e-01 
       1.868736070204e+00       1.154787147257e-01 
       1.881847190197e+00       1.153688571227e-01 
       1.894963586512e+00       1.152536330183e-01 
       1.908085369883e+00       1.151327653140e-01 
       1.921212653459e+00       1.150062345800e-01 
       1.934345552854e+00       1.148739513505e-01 
       1.947484186208e+00       1.147365972073e-01 
       1.960628674244e+00       1.145938513736e-01 
       1.973779140332e+00       1.144458560694e-01 
       1.986935710547e+00       1.142929026126e-01 
       2.000098513735e+00       1.141345454241e-01 
       2.013267681579e+00       1.139712350038e-01 
       2.026443348667e+00       1.138032216121e-01 
       2.039625652557e+00       1.136303022691e-01 
       2.052814733852e+00       1.134527887119e-01 
       2.066010736273e+00       1.132702807547e-01 
       2.079213806731e+00       1.130838511827e-01 
       2.092424095405e+00       1.128923588793e-01 
       2.105641755824e+00       1.126966158292e-01 
       2.118866944941e+00       1.124963299062e-01 
       2.132099823226e+00       1.122921023330e-01 
       2.145340554744e+00       1.120837706844e-01 
       2.158589307246e+00       1.118713214899e-01 
       2.171846252258e+00       1.116544887934e-01 
       2.185111565179e+00       1.114340698274e-01 
       2.198385425370e+00       1.112097444585e-01 
       2.211668016258e+00       1.109815549046e-01 
       2.224959525432e+00       1.107493383775e-01 
       2.238260144753e+00       1.105140019289e-01 
       2.251570070458e+00       1.102755124121e-01 
       2.264889503268e+00       1.100327599907e-01 
       2.278218648509e+00       1.097865871453e-01 
       2.291557716220e+00       1.095372247485e-01 
       2.304906921278e+00       1.092843972909e-01 
       2.318266483524e+00       1.090289889903e-01 
       2.331636627886e+00       1.087699936425e-01 
       2.345017584511e+00       1.085078685742e-01 
       2.358409588905e+00       1.082432757164e-01 
       2.371812882067e+00       1.079748780372e-01 
       2.385227710635e+00       1.077040697238e-01 
       2.398654327035e+00       1.074300739311e-01 
       2.412092989633e+00       1.071543131717e-01 
       2.425543962891e+00       1.068750030943e-01 
       2.439007517533e+00       1.065931560630e-01 
       2.452483930708e+00       1.063088734545e-01 
       2.465973486167e+00       1.060224207723e-01 
       2.479476474439e+00       1.057330926120e-01 
       2.492993193014e+00       1.054412903793e-01 
       2.506523946537e+00       1.051474755139e-01 
       2.520069047001e+00       1.048514617275e-01 
       2.533628813949e+00       1.045528687841e-01 
       2.547203574685e+00       1.042520523316e-01 
       2.560793664490e+00       1.039501461975e-01 
       2.574399426846e+00       1.036451525527e-01 
       2.588021213663e+00       1.033383394341e-01 
       2.601659385523e+00       1.030298024306e-01 
       2.615314311923e+00       1.027195220661e-01 
       2.628986371531e+00       1.024076469790e-01 
       2.642675952451e+00       1.020940610752e-01 
       2.656383452495e+00       1.017781702919e-01 
       2.670109279468e+00       1.014602511402e-01 
       2.683853851455e+00       1.011417300829e-01 
       2.697617597132e+00       1.008210873253e-01 
       2.711400956072e+00       1.004989845816e-01 
       2.725204379077e+00       1.001758567657e-01 
       2.739028328510e+00       9.985098551686e-02 
       2.752873278645e+00       9.952454949796e-02 
       2.766739716032e+00       9.919731650097e-02 
       2.780628139869e+00       9.886843106368e-02 
       2.794539062394e+00       9.853846107457e-02 
       2.808473009286e+00       9.820708657025e-02 
       2.822430520088e+00       9.787497986179e-02 
       2.836412148641e+00       9.754149331561e-02 
       2.850418463536e+00       9.720775265365e-02 
       2.864450048582e+00       9.687196680453e-02 
       2.878507503298e+00       9.653484802076e-02 
       2.892591443419e+00       9.619744156570e-02 
       2.906702501422e+00       9.585880715071e-02 
       2.920841327074e+00       9.552038087149e-02 
       2.935008588006e+00       9.518023083662e-02 
       2.949204970308e+00       9.483983596074e-02 
       2.963431179140e+00       9.449831406225e-02 
       2.977687939385e+00       9.415605554552e-02 
       2.991975996316e+00       9.381332849905e-02 
       3.006296116294e+00       9.346982127474e-02 
       3.020649087500e+00       9.312577604756e-02 
       3.035035720692e+00       9.278130330149e-02 
       3.049456850002e+00       9.243582085592e-02 
       3.063913333759e+00       9.209013162548e-02 
       3.078406055358e+00       9.174401008635e-02 
       3.092935924159e+00       9.139746899772e-02 
       3.107503876432e+00       9.105029151431e-02 
       3.122110876338e+00       9.070342644414e-02 
       3.136757916968e+00       9.035564305448e-02 
       3.151446021412e+00       9.000710332826e-02 
       3.166176243891e+00       8.965862107094e-02 
       3.180949670940e+00       8.931025356285e-02 
       3.195767422640e+00       8.896162841613e-02 
       3.210630653918e+00       8.861262607993e-02 
       3.225540555902e+00       8.826330469384e-02 
       3.240498357349e+00       8.791354407303e-02 
       3.255505326139e+00       8.756410324277e-02 
       3.270562770840e+00       8.721473034323e-02 
       3.285672042363e+00       8.686463981882e-02 
       3.300834535688e+00       8.651477516240e-02 
       3.316051691686e+00       8.616481936806e-02 
       3.331324999033e+00       8.581473878172e-02 
       3.346655996224e+00       8.546460865204e-02 
       3.362046273696e+00       8.511469482954e-02 
       3.377497476059e+00       8.476446723194e-02 
       3.393011304452e+00       8.441455624137e-02 
       3.408589519028e+00       8.406421690431e-02 
       3.424233941571e+00       8.371502821804e-02 
       3.439946458263e+00       8.336459199968e-02 
       3.455729022608e+00       8.301465045358e-02 
       3.471583658516e+00       8.266543248916e-02 
       3.487512463575e+00       8.231520718980e-02 
       3.503517612504e+00       8.196578721010e-02 
       3.519601360817e+00       8.161604606033e-02 
       3.535766048697e+00       8.126683632517e-02 
       3.552014105116e+00       8.091790779808e-02 
       3.568348052195e+00       8.056880966303e-02 
       3.584770509842e+00       8.021983032028e-02 
       3.601284200673e+00       7.987072948402e-02 
       3.617891955250e+00       7.952220419160e-02 
       3.634596717655e+00       7.917369748974e-02 
       3.651401551421e+00       7.882573694477e-02 
       3.668309645861e+00       7.847714939471e-02 
       3.685324322809e+00       7.812947863076e-02 
       3.702449043823e+00       7.778144154946e-02 
       3.719687417880e+00       7.743402233362e-02 
       3.737043209603e+00       7.708640960737e-02 
       3.754520348062e+00       7.673919116950e-02 
       3.772122936207e+00       7.639197259648e-02 
       3.789855260983e+00       7.604519668155e-02 
       3.807721804178e+00       7.569827147097e-02 
       3.825727254084e+00       7.535111486734e-02 
       3.843876518030e+00       7.500477577643e-02 
       3.862174735878e+00       7.465836164863e-02 
       3.880627294564e+00       7.431165459911e-02 
       3.899239843779e+00       7.396553500698e-02 
       3.918018312910e+00       7.361895970169e-02 
       3.936968929348e+00       7.327281509829e-02 
       3.956098238316e+00       7.292647927183e-02 
       3.975413124340e+00       7.258032113341e-02 
       3.994920834565e+00       7.223413163810e-02 
       4.014629004072e+00       7.188778795931e-02 
       4.034545683430e+00       7.154185775021e-02 
       4.054679368701e+00       7.119527428660e-02 
       4.075039034183e+00       7.084886785440e-02 
       4.095634168175e+00       7.050214914243e-02 
       4.116474812105e+00       7.015510724073e-02 
       4.137571603413e+00       6.980853912344e-02 
       4.158935822613e+00       6.946099617319e-02 
       4.180579445030e+00       6.911369619705e-02 
       4.202515197779e+00       6.876576433702e-02 
       4.224756622613e+00       6.841731902012e-02 
       4.247318145390e+00       6.806875836659e-02 
       4.270215152984e+00       6.771970653527e-02 
       4.293464078612e+00       6.737002332102e-02 
       4.317082496692e+00       6.701969022732e-02 
       4.341089228508e+00       6.666883199205e-02 
       4.365504460180e+00       6.631722885669e-02 
       4.390349874661e+00       6.596471495716e-02 
       4.415648799783e+00       6.561146954450e-02 
       4.441426374693e+00       6.525706375981e-02 
       4.467709737460e+00       6.490178603260e-02 
       4.494528237069e+00       6.454537174938e-02 
       4.521913673663e+00       6.418741104847e-02 
       4.549900571541e+00       6.382841598609e-02 
       4.578526490308e+00       6.346775938027e-02 
       4.607832380598e+00       6.310548665816e-02 
       4.637862992064e+00       6.274138080576e-02 
       4.668667342857e+00       6.237552084412e-02 
       4.700299261753e+00       6.200742564683e-02 
       4.732818016415e+00       6.163709297676e-02 
       4.766289044230e+00       6.126424788076e-02 
       4.800784805749e+00       6.088848015442e-02 
       4.836385785377e+00       6.050998701450e-02 
       4.873181669614e+00       6.012793084284e-02 
       4.911272740406e+00       5.974258746267e-02 
       4.950771530231e+00       5.935303964783e-02 
       4.991804797184e+00       5.895927171797e-02 
       5.034515892987e+00       5.856064259819e-02 
       5.079067615678e+00       5.815661451794e-02 
       5.125645662619e+00       5.774664415820e-02 
       5.174462829947e+00       5.733020895775e-02 
       5.225764143108e+00       5.690618254303e-02 
       5.279833151442e+00       5.647377184158e-02 
       5.336999679293e+00       5.603195958668e-02 
       5.397649397028e+00       5.557920736165e-02 
       5.462235655151e+00       5.511360696706e-02 
       5.531294103859e+00       5.463342023241e-02 
       5.605460675533e+00       5.413589110553e-02 
       5.685493486397e+00       5.361777151019e-02 
       5.772299008160e+00       5.307483799872e-02 
       5.866962259381e+00       5.250114840505e-02 
       5.970779377809e+00       5.188996510935e-02 
       6.085288085801e+00       5.123116504861e-02 
       6.212286237665e+00       5.051178237474e-02 
       6.353819721691e+00       4.971478750493e-02 
       6.512108458008e+00       4.881771378804e-02 
       6.689367529486e+00       4.779241290486e-02 
       6.887484478075e+00       4.660660303169e-02 
       7.107561309858e+00       4.522752519108e-02 
       7.349440031998e+00       4.363052092367e-02 
       7.611452626682e+00       4.181055894151e-02 
       7.890619328022e+00       3.979138093356e-02 
       8.183270972094e+00       3.762736129395e-02 
       8.485785060077e+00       3.539630739073e-02 
       8.795101960946e+00       3.318532274470e-02 
       9.108910838476e+00       3.107661123721e-02 
       9.425596883124e+00       2.913691549205e-02 
       9.744088874462e+00       2.741147558394e-02 
       1.006369977335e+01       2.592286585057e-02 
       1.038399826064e+01       2.467244116919e-02 
       1.070471714270e+01       2.364373711724e-02 
       1.102569225454e+01       2.280668601029e-02 
       1.134682323985e+01       2.212185269886e-02 
       1.166804893801e+01       2.154495462717e-02 
       1.198933214546e+01       2.103072243355e-02 
       1.231065025730e+01       2.053703176967e-02 
       1.263198954832e+01       2.002839541120e-02 
       1.295334168834e+01       1.947888995701e-02 
       1.327470162286e+01       1.887381111221e-02 
       1.359606628545e+01       1.821016153932e-02 
       1.391743381593e+01       1.749539467411e-02 
       1.423880308598e+01       1.674527423721e-02 
       1.456017341117e+01       1.598072955225e-02 
       1.488154437636e+01       1.522476069570e-02 
       1.520291572976e+01       1.449926073820e-02 
       1.552428731865e+01       1.382316191612e-02 
       1.584565905039e+01       1.321022413627e-02 
       1.616703086878e+01       1.266858565197e-02 
       1.648840273976e+01       1.220031108127e-02 
       1.680977464265e+01       1.180244004483e-02 
