# dimensionless total lensed [l(l+1)/2pi] C_l's
# for l=2 to 2500, i.e. number of multipoles equal to 2499
#
# -> if you prefer output in CAMB/HealPix/LensPix units/order, set 'format' to 'camb' in input file
# -> if you don't want to see such a header, set 'headers' to 'no' in input file
# -> for CMB lensing (phi), these are C_l^phi-phi for the lensing potential.
#    Remember the conversion factors:
#    C_l^dd (deflection) = l(l+1) C_l^phi-phi
#    C_l^gg (shear/convergence) = 1/4 (l(l+1))^2 C_l^phi-phi
#
# 1:l     2:TT                     3:EE                     4:TE                     5:BB                     6:phiphi                 7:TPhi                   8:Ephi               
    2       5.960178275543e-10       3.371951675091e-15       8.140137697101e-13       3.632845801637e-19       2.282682499183e-08      -2.980315395500e-09      -2.235558110839e-12 
    3       4.317895991558e-10       6.756795983624e-15       8.096724914141e-13       7.269481821354e-19       1.452416694513e-08      -1.937164267081e-09      -1.867912384960e-12 
    4       3.439065507052e-10       1.029835181772e-14       7.854682815106e-13       1.212413314316e-18       1.013509830932e-08      -1.389812434812e-09      -1.603360715667e-12 
    5       2.896284063813e-10       1.300684663959e-14       7.429070694074e-13       1.820159770026e-18       7.526667670829e-09      -1.059936992614e-09      -1.373330171470e-12 
    6       2.528591988426e-10       1.427619145465e-14       6.847222581621e-13       2.550765744680e-18       5.846395691713e-09      -8.419860509275e-10      -1.155255353541e-12 
    7       2.264660671119e-10       1.401271902690e-14       6.181611059715e-13       3.404894229243e-18       4.699727460898e-09      -6.889485620184e-10      -9.500635617083e-13 
    8       2.067693523576e-10       1.249740540793e-14       5.487931902225e-13       4.383277421181e-18       3.879479240296e-09      -5.764607193495e-10      -7.606161353189e-13 
    9       1.916267761348e-10       1.021680624509e-14       4.806470482291e-13       5.486699532047e-18       3.268176035969e-09      -4.907427984692e-10      -5.892665343458e-13 
   10       1.797529453837e-10       7.696339817443e-15       4.163573603813e-13       6.715978414327e-18       2.795830136203e-09      -4.235353299617e-10      -4.376626447008e-13 
   11       1.703820145587e-10       5.373166754771e-15       3.575045092944e-13       8.071946464825e-18       2.081453878013e-09      -3.499701928801e-10      -3.075182125452e-13 
   12       1.628430909930e-10       3.526545139014e-15       3.051663687762e-13       9.555431286586e-18       1.800415188912e-09      -3.070684054403e-10      -1.983423472421e-13 
   13       1.567686919251e-10       2.263858286120e-15       2.599892007891e-13       1.116723660526e-17       1.572283090700e-09      -2.714766103085e-10      -1.090526179181e-13 
   14       1.518810956120e-10       1.548726583398e-15       2.222502649076e-13       1.290812393812e-17       1.384461226763e-09      -2.417707633688e-10      -3.973563186568e-14 
   15       1.479071989723e-10       1.252602284227e-15       1.920650661903e-13       1.477879550410e-17       1.227924571621e-09      -2.165530071978e-10       1.159972567001e-14 
   16       1.447276024778e-10       1.211507805192e-15       1.692759270893e-13       1.677987884095e-17       1.096050470264e-09      -1.950287435619e-10       4.629795355858e-14 
   17       1.421619931498e-10       1.273634576477e-15       1.534277857682e-13       1.891191356074e-17       9.839025637266e-10      -1.764229333038e-10       6.666458923840e-14 
   18       1.400961116993e-10       1.325353867506e-15       1.438138198110e-13       2.117533977497e-17       8.872561086578e-10      -1.602672644080e-10       7.500320481562e-14 
   19       1.385100132826e-10       1.324220124725e-15       1.398742011459e-13       2.357049448461e-17       8.046099898174e-10      -1.463196729885e-10       7.339064269622e-14 
   20       1.372804963761e-10       1.251716638945e-15       1.404892280599e-13       2.609759711657e-17       7.322914919619e-10      -1.339608949825e-10       6.487228203765e-14 
   21       1.363681138358e-10       1.133049062801e-15       1.447736818802e-13       2.875676238826e-17       6.690163591275e-10      -1.230077245239e-10       5.151624433926e-14 
   22       1.357009134087e-10       1.013444503016e-15       1.516074424398e-13       3.154798470454e-17       6.132123826060e-10      -1.132458352925e-10       3.547573606427e-14 
   23       1.352765094849e-10       9.243681881579e-16       1.601610868209e-13       3.447116376383e-17       5.640161379277e-10      -1.045691031917e-10       1.844084541679e-14 
   24       1.350701626500e-10       8.912861542315e-16       1.695408787252e-13       3.752608872572e-17       5.201681457524e-10      -9.679450756565e-11       2.068887167103e-15 
   25       1.350491992875e-10       9.165348744609e-16       1.790986424861e-13       4.071248083335e-17       4.810897215119e-10      -8.980567012850e-11      -1.260405665450e-14 
   26       1.351555138373e-10       9.904227486491e-16       1.882198943693e-13       4.402997176516e-17       4.460200045147e-10      -8.344607498858e-11      -2.477673483930e-14 
   27       1.353924102314e-10       1.093105042053e-15       1.965703768231e-13       4.747814971873e-17       4.144944343734e-10      -7.767038009739e-11      -3.403510902449e-14 
   28       1.357638344005e-10       1.200552845122e-15       2.039168760772e-13       5.105654846040e-17       3.859232155916e-10      -7.242689200328e-11      -4.019201766589e-14 
   29       1.362715365322e-10       1.303036117040e-15       2.101949428447e-13       5.476473616572e-17       3.601339982730e-10      -6.769028602785e-11      -4.330606245744e-14 
   30       1.368938183333e-10       1.394156284124e-15       2.154166835986e-13       5.860225301320e-17       3.368228324445e-10      -6.339438454616e-11      -4.365265540888e-14 
   31       1.375913018075e-10       1.469243637904e-15       2.196434560572e-13       6.256862416817e-17       3.154806009282e-10      -5.943610154966e-11      -4.167009192867e-14 
   32       1.383625638728e-10       1.535835803073e-15       2.230204330686e-13       6.666349573135e-17       2.959808981840e-10      -5.579594434412e-11      -3.778942794782e-14 
   33       1.392053660063e-10       1.607449016848e-15       2.257626738953e-13       7.088655704849e-17       2.781717026119e-10      -5.245536298329e-11      -3.256743493039e-14 
   34       1.401072401641e-10       1.698345912517e-15       2.281200766226e-13       7.523754272917e-17       2.617862638100e-10      -4.937484598983e-11      -2.666133984002e-14 
   35       1.410695238832e-10       1.813849464413e-15       2.302700814415e-13       7.971634316043e-17       2.467302678274e-10      -4.653800209030e-11      -2.053813723904e-14 
   36       1.420893271492e-10       1.956732200620e-15       2.323915356240e-13       8.432294545282e-17       2.328722350181e-10      -4.391870495049e-11      -1.467729462635e-14 
   37       1.431572337936e-10       2.128895618486e-15       2.346596942213e-13       8.905743020156e-17       2.200192446644e-10      -4.147974372405e-11      -9.565684429778e-15 
   38       1.442753791343e-10       2.328432178768e-15       2.371264596906e-13       9.392003187559e-17       2.081321165178e-10      -3.921537833805e-11      -5.397023847103e-15 
   39       1.454437495264e-10       2.551486572260e-15       2.398000744207e-13       9.891111400048e-17       1.971680214597e-10      -3.712038994127e-11      -2.274988455079e-15 
   40       1.466543402338e-10       2.792930186764e-15       2.426754910683e-13       1.040311654116e-16       1.870152242506e-10      -3.517730817321e-11      -2.917736376468e-16 
   41       1.478956292846e-10       3.047755487290e-15       2.457202142201e-13       1.092807925795e-16       1.775308483627e-10      -3.336258118591e-11       5.060408278132e-16 
   42       1.491696340572e-10       3.316014783442e-15       2.488294954234e-13       1.146606701690e-16       1.686833199039e-10      -3.167009322806e-11       2.296140651784e-16 
   43       1.504790884642e-10       3.599342368924e-15       2.518543027998e-13       1.201715907772e-16       1.604462368479e-10      -3.009348809043e-11      -9.252254017226e-16 
   44       1.518222504803e-10       3.899626027039e-15       2.546107061114e-13       1.258144893439e-16       1.527557171311e-10      -2.861901235582e-11      -2.703756208036e-15 
   45       1.531951199334e-10       4.218482649674e-15       2.569025793940e-13       1.315903724722e-16       1.455325285415e-10      -2.723015826215e-11      -4.828904408840e-15 
   46       1.545998780201e-10       4.555463645909e-15       2.586030344359e-13       1.375000610464e-16       1.387633607260e-10      -2.592461371959e-11      -7.132763958936e-15 
   47       1.560382522832e-10       4.909337927616e-15       2.595935560153e-13       1.435443852092e-16       1.324388024944e-10      -2.470139347664e-11      -9.457990796961e-15 
   48       1.575088320532e-10       5.278568379198e-15       2.597404280927e-13       1.497242607924e-16       1.265288712149e-10      -2.355578467277e-11      -1.161950430389e-14 
   49       1.590067980609e-10       5.661295456521e-15       2.588939489225e-13       1.560406933029e-16       1.209814907088e-10      -2.247906784951e-11      -1.340304326809e-14 
   50       1.605261488059e-10       6.055915527889e-15       2.569197274442e-13       1.624946604616e-16       1.157378648503e-10      -2.146118604671e-11      -1.461222192612e-14 
   51       1.620677194024e-10       6.463039016521e-15       2.538044082447e-13       1.690867129839e-16       1.107870492013e-10      -2.050025345633e-11      -1.522810617915e-14 
   52       1.636328719770e-10       6.884035423471e-15       2.495772877139e-13       1.758172723258e-16       1.061235611783e-10      -1.959514553580e-11      -1.529045643368e-14 
   53       1.652210398852e-10       7.320496352358e-15       2.442814485986e-13       1.826867409720e-16       1.017310692354e-10      -1.874263957754e-11      -1.485383173573e-14 
   54       1.668295748180e-10       7.774247096163e-15       2.379744848216e-13       1.896955007069e-16       9.758166585163e-11      -1.793727445343e-11      -1.398842809232e-14 
   55       1.684552037747e-10       8.247078537635e-15       2.307202152308e-13       1.968438174749e-16       9.364421126347e-11      -1.717297604256e-11      -1.277745864351e-14 
   56       1.700991740922e-10       8.739838313596e-15       2.225597538102e-13       2.041315322443e-16       8.991345745146e-11      -1.644872767846e-11      -1.130661152789e-14 
   57       1.717631187473e-10       9.253134171524e-15       2.135345222643e-13       2.115582903187e-16       8.638688575646e-11      -1.576406269419e-11      -9.673441510659e-15 
   58       1.734474702647e-10       9.787594549880e-15       2.036949970286e-13       2.191236227678e-16       8.305590454662e-11      -1.511735225020e-11      -7.991286956493e-15 
   59       1.751513705461e-10       1.034386926804e-14       1.931010830075e-13       2.268269410589e-16       7.990547560995e-11      -1.450573387169e-11      -6.389973418075e-15 
   60       1.768725806990e-10       1.092263021620e-14       1.818224873114e-13       2.346675316883e-16       7.691374054676e-11      -1.392503998597e-11      -5.016517224552e-15 
   61       1.786086167965e-10       1.152443111431e-14       1.699184984892e-13       2.426445944930e-16       7.405801029430e-11      -1.337094188049e-11      -4.002113729232e-15 
   62       1.803606590529e-10       1.214924844347e-14       1.573711749091e-13       2.507573797784e-16       7.133514993355e-11      -1.284284330089e-11      -3.352851507695e-15 
   63       1.821303640879e-10       1.279683822696e-14       1.441377547481e-13       2.590050725842e-16       6.874512732141e-11      -1.234073797848e-11      -3.035604681416e-15 
   64       1.839186661663e-10       1.346686416180e-14       1.301696530000e-13       2.673867478165e-16       6.628488540823e-11      -1.186403908283e-11      -3.009224730841e-15 
   65       1.857257259254e-10       1.415889383698e-14       1.154121817655e-13       2.759013662655e-16       6.394817052765e-11      -1.141154632353e-11      -3.224174321591e-15 
   66       1.875508791014e-10       1.487239495180e-14       9.980427054176e-14       2.845477706229e-16       6.172536068648e-11      -1.098141305190e-11      -3.622161130669e-15 
   67       1.893925852562e-10       1.560673153414e-14       8.327818651180e-14       2.933246814994e-16       5.960329385463e-11      -1.057111336276e-11      -4.135771672666e-15 
   68       1.912492139515e-10       1.636132186928e-14       6.577004141039e-14       3.022309099532e-16       5.756874843962e-11      -1.017811003520e-11      -4.698334528368e-15 
   69       1.931217028610e-10       1.713615789951e-14       4.725440955880e-14       3.112660539838e-16       5.562008746799e-11      -9.802089054702e-12      -5.276649296391e-15 
   70       1.950113486273e-10       1.793138475845e-14       2.771625410045e-14       3.204299366602e-16       5.375767619477e-11      -9.443120844515e-12      -5.844262048741e-15 
   71       1.969189877500e-10       1.874714872026e-14       7.140757297068e-15       3.297224036238e-16       5.198036177908e-11      -9.100984782222e-12      -6.371720024636e-15 
   72       1.988449667309e-10       1.958359755375e-14      -1.448668331011e-14       3.391433246431e-16       5.028539498018e-11      -8.775154225768e-12      -6.826467078256e-15 
   73       2.007891122188e-10       2.044088087643e-14      -3.718045873921e-14       3.486925951689e-16       4.866835185371e-11      -8.464781539464e-12      -7.172739126499e-15 
   74       2.027507011546e-10       2.131915050867e-14      -6.095475240653e-14       3.583701378888e-16       4.712305544775e-11      -8.168683120007e-12      -7.371459596725e-15 
   75       2.047284309158e-10       2.221856082782e-14      -8.582354396541e-14       3.681759042819e-16       4.564149749901e-11      -7.885324422491e-12      -7.380134874513e-15 
   76       2.067209880970e-10       2.313922354640e-14      -1.117943285780e-13       3.781099719811e-16       4.421581327601e-11      -7.613184338270e-12      -7.166633620523e-15 
   77       2.087289405888e-10       2.408106174365e-14      -1.388479439863e-13       3.881728539186e-16       4.284479495806e-11      -7.351958140053e-12      -6.753656745407e-15 
   78       2.107531378911e-10       2.504392973568e-14      -1.669550546935e-13       3.983652486412e-16       4.152842925831e-11      -7.101547714102e-12      -6.182224474883e-15 
   79       2.127941257910e-10       2.602765571879e-14      -1.960819871770e-13       4.086879529666e-16       4.026591402961e-11      -6.861694590255e-12      -5.498689123301e-15 
   80       2.148521287837e-10       2.703204118906e-14      -2.261906048568e-13       4.191418655035e-16       3.905562206202e-11      -6.631972746857e-12      -4.754915241384e-15 
   81       2.169270324927e-10       2.805686036189e-14      -2.572381830641e-13       4.297279901704e-16       3.789506488045e-11      -6.411781415687e-12      -4.008459763953e-15 
   82       2.190183660899e-10       2.910185959154e-14      -2.891772840103e-13       4.404474397150e-16       3.678085654221e-11      -6.200337886893e-12      -3.322752157666e-15 
   83       2.211252847166e-10       3.016675679064e-14      -3.219556317555e-13       4.513014392343e-16       3.570867743461e-11      -5.996670313921e-12      -2.767274568744e-15 
   84       2.232469965188e-10       3.125126605160e-14      -3.555280905579e-13       4.622910891306e-16       3.467431963157e-11      -5.799860091913e-12      -2.401352058604e-15 
   85       2.253841636023e-10       3.235517747203e-14      -3.898951553894e-13       4.734166011209e-16       3.367710137950e-11      -5.609830920854e-12      -2.222041127235e-15 
   86       2.275377021749e-10       3.347828955995e-14      -4.250706427614e-13       4.846779414384e-16       3.271695491740e-11      -5.426677968776e-12      -2.207892335909e-15 
   87       2.297083486226e-10       3.462038505399e-14      -4.610702319120e-13       4.960750596177e-16       3.179337748673e-11      -5.250426972460e-12      -2.334478207343e-15 
   88       2.318966494023e-10       3.578123076643e-14      -4.979115431922e-13       5.076078879719e-16       3.090541330655e-11      -5.081031236876e-12      -2.574297912723e-15 
   89       2.341029509348e-10       3.696057742637e-14      -5.356142164533e-13       5.192763410684e-16       3.005163554845e-11      -4.918368634629e-12      -2.896681958732e-15 
   90       2.363273894978e-10       3.815815952277e-14      -5.741999894338e-13       5.310803152057e-16       2.923012831170e-11      -4.762238605399e-12      -3.267696874571e-15 
   91       2.385698811187e-10       3.937369514759e-14      -6.136927761457e-13       5.430196878891e-16       2.843846859823e-11      -4.612359155383e-12      -3.650049898990e-15 
   92       2.408301114675e-10       4.060688583887e-14      -6.541187452619e-13       5.550943173079e-16       2.767370828770e-11      -4.468363856739e-12      -4.002993667305e-15 
   93       2.431077752725e-10       4.185741507800e-14      -6.954994584188e-13       5.673039623321e-16       2.693307259186e-11      -4.329886861645e-12      -4.290875200884e-15 
   94       2.454033577089e-10       4.312494386378e-14      -7.378299343580e-13       5.796480298774e-16       2.621621473274e-11      -4.196839087881e-12      -4.510460693346e-15 
   95       2.477174523908e-10       4.440911417950e-14      -7.810974152082e-13       5.921257883995e-16       2.552326861975e-11      -4.069168217132e-12      -4.667563272427e-15 
   96       2.500505157278e-10       4.570955010644e-14      -8.252879959557e-13       6.047364423938e-16       2.485415450497e-11      -3.946772613135e-12      -4.768787908484e-15 
   97       2.524028602427e-10       4.702585764851e-14      -8.703866075662e-13       6.174791307815e-16       2.420857079319e-11      -3.829499529290e-12      -4.821554760443e-15 
   98       2.547746478900e-10       4.835762455688e-14      -9.163770001060e-13       6.303529252943e-16       2.358598585192e-11      -3.717143316262e-12      -4.834122521742e-15 
   99       2.571658833737e-10       4.970442015457e-14      -9.632417258635e-13       6.433568288605e-16       2.298562982150e-11      -3.609443629587e-12      -4.815611766285e-15 
  100       2.595764074654e-10       5.106579516111e-14      -1.010962122471e-12       6.564897739896e-16       2.240648642506e-11      -3.506083637276e-12      -4.776028294379e-15 
  101       2.620058903225e-10       5.244128151717e-14      -1.059518296025e-12       6.697506211582e-16       2.184728477861e-11      -3.406688227421e-12      -4.726286478690e-15 
  102       2.644538248061e-10       5.383039220914e-14      -1.108889104209e-12       6.831381571950e-16       2.130649120105e-11      -3.310822215798e-12      -4.678232610184e-15 
  103       2.669195197991e-10       5.523262109380e-14      -1.159052139415e-12       6.966510936666e-16       2.078230102424e-11      -3.217988553473e-12      -4.644668244077e-15 
  104       2.694023447387e-10       5.664743233904e-14      -1.209984666273e-12       7.102884246367e-16       2.027304820782e-11      -3.127737102574e-12      -4.636617181446e-15 
  105       2.719025152242e-10       5.807422749915e-14      -1.261666614829e-12       7.240505584645e-16       1.977851484143e-11      -3.040011558888e-12      -4.654655666121e-15 
  106       2.744204015706e-10       5.951237364423e-14      -1.314077962118e-12       7.379383365974e-16       1.929878409221e-11      -2.954846270080e-12      -4.696449095170e-15 
  107       2.769562831966e-10       6.096121306093e-14      -1.367197807548e-12       7.519526901558e-16       1.883383464118e-11      -2.872259282033e-12      -4.759396939940e-15 
