# dimensionless total [l(l+1)/2pi] C_l's
# for l=2 to 3000, i.e. number of multipoles equal to 2999
#
# -> if you prefer output in CAMB/HealPix/LensPix units/order, set 'format' to 'camb' in input file
# -> if you don't want to see such a header, set 'headers' to 'no' in input file
# -> for CMB lensing (phi), these are C_l^phi-phi for the lensing potential.
#    Remember the conversion factors:
#    C_l^dd (deflection) = l(l+1) C_l^phi-phi
#    C_l^gg (shear/convergence) = 1/4 (l(l+1))^2 C_l^phi-phi
#
# 1:l     2:TT                     3:EE                     4:TE                     5:BB                     6:phiphi                 7:TPhi                   8:Ephi               
    2       5.960172531162e-10       3.371588390158e-15       8.140137806081e-13       0.000000000000e+00       2.282682498387e-08      -2.980315398494e-09      -2.235558110839e-12 
    3       4.317884393712e-10       6.756069031954e-15       8.096725396900e-13       0.000000000000e+00       1.452416695003e-08      -1.937164265002e-09      -1.867912384960e-12 
    4       3.439045960170e-10       1.029713938725e-14       7.854684191186e-13       0.000000000000e+00       1.013509828199e-08      -1.389812444710e-09      -1.603360715666e-12 
    5       2.896254351631e-10       1.300502642096e-14       7.429073797671e-13       0.000000000000e+00       7.526667608255e-09      -1.059937017103e-09      -1.373330171470e-12 
    6       2.528549694820e-10       1.427364052806e-14       6.847228611417e-13       0.000000000000e+00       5.846395685788e-09      -8.419860509318e-10      -1.155255353544e-12 
    7       2.264603294958e-10       1.400931375747e-14       6.181621611846e-13       0.000000000000e+00       4.699727446747e-09      -6.889485644359e-10      -9.500635617084e-13 
    8       2.067618399006e-10       1.249302135232e-14       5.487948984738e-13       0.000000000000e+00       3.879479214274e-09      -5.764607301288e-10      -7.606161353218e-13 
    9       1.916172021326e-10       1.021131807246e-14       4.806496511239e-13       0.000000000000e+00       3.268176047024e-09      -4.907427927698e-10      -5.892665343464e-13 
   10       1.797410224359e-10       7.689621247779e-15       4.163611380812e-13       0.000000000000e+00       2.795829960873e-09      -4.235353922644e-10      -4.376626447065e-13 
   11       1.703674371790e-10       5.365090518123e-15       3.575097766733e-13       0.000000000000e+00       2.081453856617e-09      -3.499702377325e-10      -3.075182125452e-13 
   12       1.628255306036e-10       3.516982958759e-15       3.051734701219e-13       0.000000000000e+00       1.800415168288e-09      -3.070684427331e-10      -1.983423472338e-13 
   13       1.567478207934e-10       2.252680889216e-15       2.599985033977e-13       0.000000000000e+00       1.572283070556e-09      -2.714766245274e-10      -1.090526179173e-13 
   14       1.518565961359e-10       1.535803739994e-15       2.222621521307e-13       0.000000000000e+00       1.384461206897e-09      -2.417707621095e-10      -3.973563187985e-14 
   15       1.478787583134e-10       1.237802878226e-15       1.920799301065e-13       0.000000000000e+00       1.227924551965e-09      -2.165530090574e-10       1.159972566777e-14 
   16       1.446949083070e-10       1.194699936355e-15       1.692941614610e-13       0.000000000000e+00       1.096050450632e-09      -1.950287589489e-10       4.629795358064e-14 
   17       1.421247468730e-10       1.254685693419e-15       1.534497796518e-13       0.000000000000e+00       9.839025439707e-10      -1.764229566136e-10       6.666458924274e-14 
   18       1.400540261439e-10       1.304130929201e-15       1.438399521708e-13       0.000000000000e+00       8.872560887186e-10      -1.602672796425e-10       7.500320480465e-14 
   19       1.384628269134e-10       1.300589789236e-15       1.399048382258e-13       0.000000000000e+00       8.046099695109e-10      -1.463196688687e-10       7.339064268846e-14 
   20       1.372279799165e-10       1.225545470023e-15       1.405247199672e-13       0.000000000000e+00       7.322914713722e-10      -1.339608717870e-10       6.487228204477e-14 
   21       1.363100529544e-10       1.104203748618e-15       1.448143648384e-13       0.000000000000e+00       6.690163383028e-10      -1.230076943534e-10       5.151624435261e-14 
   22       1.356371072099e-10       9.817920922849e-16       1.516536399604e-13       0.000000000000e+00       6.132123614522e-10      -1.132458196633e-10       3.547573605672e-14 
   23       1.352067966105e-10       8.897763033105e-16       1.602131167317e-13       0.000000000000e+00       5.640161162734e-10      -1.045691126662e-10       1.844084539303e-14 
   24       1.349944272429e-10       8.536232233581e-16       1.695990590521e-13       0.000000000000e+00       5.201681233880e-10      -9.679453479232e-11       2.068887170799e-15 
   25       1.349673389174e-10       8.756702916685e-16       1.791633028124e-13       0.000000000000e+00       4.810896982822e-10      -8.980570318975e-11      -1.260405662004e-14 
   26       1.350674312573e-10       9.462270688947e-16       1.882913860915e-13       0.000000000000e+00       4.460199803719e-10      -8.344610331479e-11      -2.477673482865e-14 
   27       1.352980374417e-10       1.045450081050e-15       1.966490875727e-13       0.000000000000e+00       4.144944093943e-10      -7.767040161804e-11      -3.403510906941e-14 
   28       1.356631364722e-10       1.149311790111e-15       2.040032431094e-13       0.000000000000e+00       3.859231899883e-10      -7.242691426378e-11      -4.019201775079e-14 
   29       1.361644877398e-10       1.248083413183e-15       2.102894677035e-13       0.000000000000e+00       3.601339723304e-10      -6.769031370139e-11      -4.330606255457e-14 
   30       1.367803902517e-10       1.335367674955e-15       2.155199473927e-13       0.000000000000e+00       3.368228065058e-10      -6.339441418138e-11      -4.365265548935e-14 
   31       1.374714590547e-10       1.406496163121e-15       2.197561335182e-13       0.000000000000e+00       3.154805753703e-10      -5.943612227459e-11      -4.167009196615e-14 
   32       1.382362700374e-10       1.469007422505e-15       2.231433000882e-13       0.000000000000e+00       2.959808732872e-10      -5.579594915035e-11      -3.778942793227e-14 
   33       1.390725824934e-10       1.536418449790e-15       2.258966208682e-13       0.000000000000e+00       2.781716784919e-10      -5.245535355537e-11      -3.256743487616e-14 
   34       1.399679210124e-10       1.622992466140e-15       2.282661198745e-13       0.000000000000e+00       2.617862404168e-10      -4.937483231469e-11      -2.666133978363e-14 
   35       1.409236069445e-10       1.734052536065e-15       2.304293587728e-13       0.000000000000e+00       2.467302450957e-10      -4.653799284667e-11      -2.053813720849e-14 
   36       1.419367269183e-10       1.872370957874e-15       2.325653132341e-13       0.000000000000e+00       2.328722129196e-10      -4.391870384244e-11      -1.467729462867e-14 
   37       1.429978376427e-10       2.039848707521e-15       2.348493694254e-13       0.000000000000e+00       2.200192232112e-10      -4.147974939668e-11      -9.565684451216e-15 
   38       1.441090534698e-10       2.234577312009e-15       2.373335331095e-13       0.000000000000e+00       2.081320957309e-10      -3.921538858171e-11      -5.397023872238e-15 
   39       1.452703388218e-10       2.452700155786e-15       2.400261426296e-13       0.000000000000e+00       1.971680013621e-10      -3.712040298020e-11      -2.274988473166e-15 
   40       1.464736631549e-10       2.689086947789e-15       2.429222470957e-13       0.000000000000e+00       1.870152048695e-10      -3.517732282021e-11      -2.917736439799e-16 
   41       1.477074782671e-10       2.938728185765e-15       2.459894370281e-13       0.000000000000e+00       1.775308297268e-10      -3.336259683225e-11       5.060408318549e-16 
   42       1.489737870663e-10       3.201674269658e-15       2.491230026388e-13       0.000000000000e+00       1.686833020236e-10      -3.167010924877e-11       2.296140767877e-16 
   43       1.502753122085e-10       3.479557365247e-15       2.521739277947e-13       0.000000000000e+00       1.604462197071e-10      -3.009350366240e-11      -9.252253854530e-16 
   44       1.516103003738e-10       3.774262792584e-15       2.549582838321e-13       0.000000000000e+00       1.527557006839e-10      -2.861902643409e-11      -2.703756190063e-15 
   45       1.529747429520e-10       4.087404979931e-15       2.572799263316e-13       0.000000000000e+00       1.455325127166e-10      -2.723016967359e-11      -4.828904392016e-15 
   46       1.543708251353e-10       4.418534038262e-15       2.590119113111e-13       0.000000000000e+00       1.387633454570e-10      -2.592462165291e-11      -7.132763945529e-15 
   47       1.558002842795e-10       4.766417899478e-15       2.600356408687e-13       0.000000000000e+00       1.324387877318e-10      -2.470139769275e-11      -9.457990788393e-15 
   48       1.572617229711e-10       5.129518466366e-15       2.602172925247e-13       0.000000000000e+00       1.265288569311e-10      -2.355578561269e-11      -1.161950430056e-14 
   49       1.587503388602e-10       5.505975214174e-15       2.594070330467e-13       0.000000000000e+00       1.209814769034e-10      -2.247906674799e-11      -1.340304326918e-14 
   50       1.602601511237e-10       5.894183975982e-15       2.574703213231e-13       0.000000000000e+00       1.157378515481e-10      -2.146118480794e-11      -1.461222192973e-14 
   51       1.617920191103e-10       6.294756554458e-15       2.543936578291e-13       0.000000000000e+00       1.107870364261e-10      -2.050025372620e-11      -1.522810618344e-14 
   52       1.633473332655e-10       6.709064678886e-15       2.502061807062e-13       0.000000000000e+00       1.061235489444e-10      -1.959514836950e-11      -1.529045643733e-14 
   53       1.649255596792e-10       7.138702645876e-15       2.449507922318e-13       0.000000000000e+00       1.017310575468e-10      -1.874264532624e-11      -1.485383173797e-14 
   54       1.665240874067e-10       7.585498929595e-15       2.386848827171e-13       0.000000000000e+00       9.758165470063e-11      -1.793728264531e-11      -1.398842809309e-14 
   55       1.681396810489e-10       8.051248185800e-15       2.314720659967e-13       0.000000000000e+00       9.364420063120e-11      -1.717298546538e-11      -1.277745864337e-14 
   56       1.697736108327e-10       8.536802703497e-15       2.233533232921e-13       0.000000000000e+00       8.991344731357e-11      -1.644873713871e-11      -1.130661152746e-14 
   57       1.714275295237e-10       9.042775586596e-15       2.143699588288e-13       0.000000000000e+00       8.638687608473e-11      -1.576407125775e-11      -9.673441510412e-15 
   58       1.731018906513e-10       9.569801286279e-15       2.045723257515e-13       0.000000000000e+00       8.305589530917e-11      -1.511735929280e-11      -7.991286956745e-15 
   59       1.747958583723e-10       1.011853631748e-14       1.940201998247e-13       0.000000000000e+00       7.990546677137e-11      -1.450573913170e-11      -6.389973418956e-15 
   60       1.765072173351e-10       1.068965997537e-14       1.827831531326e-13       0.000000000000e+00       7.691373206838e-11      -1.392504361963e-11      -5.016517225973e-15 
   61       1.782335026961e-10       1.128373333201e-14       1.709203538612e-13       0.000000000000e+00       7.405800213510e-11      -1.337094442076e-11      -4.002113730913e-15 
   62       1.799758904827e-10       1.190073762107e-14       1.584138218068e-13       0.000000000000e+00       7.133514205383e-11      -1.284284529677e-11      -3.352851509355e-15 
   63       1.817360244901e-10       1.254043303844e-14       1.452207863068e-13       0.000000000000e+00       6.874511968439e-11      -1.234073988610e-11      -3.035604682833e-15 
   64       1.835148227814e-10       1.320248761364e-14       1.312926645936e-13       0.000000000000e+00       6.628487798093e-11      -1.186404124807e-11      -3.009224731863e-15 
   65       1.853124262659e-10       1.388647342961e-14       1.165747826999e-13       0.000000000000e+00       6.394816328194e-11      -1.141154896396e-11      -3.224174322146e-15 
   66       1.871281472780e-10       1.459186284251e-14       1.010060963640e-13       0.000000000000e+00       6.172535360007e-11      -1.098141623796e-11      -3.622161130777e-15 
   67       1.889604181550e-10       1.531802470160e-14       8.451891193498e-14       0.000000000000e+00       5.960328691216e-11      -1.057111699817e-11      -4.135771672447e-15 
   68       1.908075800603e-10       1.606438131770e-14       6.704937694571e-14       0.000000000000e+00       5.756874163267e-11      -1.017811387649e-11      -4.698334528032e-15 
   69       1.926705499979e-10       1.683092475247e-14       4.857204405959e-14       0.000000000000e+00       5.562008079169e-11      -9.802092859105e-12      -5.276649296141e-15 
   70       1.945506043126e-10       1.761779883270e-14       2.907184149026e-14       0.000000000000e+00       5.375766964721e-11      -9.443124414273e-12      -5.844262048740e-15 
   71       1.964485568651e-10       1.842514798293e-14       8.533919416229e-15       0.000000000000e+00       5.198035536174e-11      -9.100987971581e-12      -6.371720025002e-15 
   72       1.983647291001e-10       1.925311755646e-14      -1.305635367466e-14       0.000000000000e+00       5.028538869843e-11      -8.775156948237e-12      -6.826467079060e-15 
   73       2.002989201150e-10       2.010185416639e-14      -3.571339464093e-14       0.000000000000e+00       4.866834571727e-11      -8.464783775349e-12      -7.172739127751e-15 
   74       2.022503767272e-10       2.097150601668e-14      -5.945140934311e-14       0.000000000000e+00       4.712304947122e-11      -8.168684924208e-12      -7.371459598375e-15 
   75       2.042177635426e-10       2.186222323316e-14      -8.428439629935e-14       0.000000000000e+00       4.564149170236e-11      -7.885325932569e-12      -7.380134876439e-15 
   76       2.061997406303e-10       2.277411347332e-14      -1.102199009724e-13       0.000000000000e+00       4.421580768339e-11      -7.613185760964e-12      -7.166633622544e-15 
   77       2.081968843269e-10       2.370709867852e-14      -1.372389556628e-13       0.000000000000e+00       4.284478959086e-11      -7.351959668038e-12      -6.753656747352e-15 
   78       2.102100639472e-10       2.466103267995e-14      -1.653124712046e-13       0.000000000000e+00       4.152842413295e-11      -7.101549500213e-12      -6.182224476611e-15 
   79       2.122398480618e-10       2.563574302593e-14      -1.944070393347e-13       0.000000000000e+00       4.026590915694e-11      -6.861696742222e-12      -5.498689124708e-15 
   80       2.142864870240e-10       2.663103039596e-14      -2.244848082000e-13       0.000000000000e+00       3.905561744674e-11      -6.631975321861e-12      -4.754915242403e-15 
   81       2.163498954979e-10       2.764666801467e-14      -2.555033578650e-13       0.000000000000e+00       3.789506052050e-11      -6.411784414737e-12      -4.008459764562e-15 
   82       2.184296349859e-10       2.868240106586e-14      -2.874155758186e-13       0.000000000000e+00       3.678085242813e-11      -6.200341249026e-12      -3.322752157890e-15 
   83       2.205248963560e-10       2.973794610643e-14      -3.201695324817e-13       0.000000000000e+00       3.570867354889e-11      -5.996673910216e-12      -2.767274568665e-15 
   84       2.226349241635e-10       3.081301742627e-14      -3.537204408111e-13       0.000000000000e+00       3.467431594979e-11      -5.799863736094e-12      -2.401352058345e-15 
   85       2.247604087110e-10       3.190741243216e-14      -3.880690858293e-13       0.000000000000e+00       3.367709787736e-11      -5.609834433170e-12      -2.222041126923e-15 
   86       2.269022938011e-10       3.302093941012e-14      -4.232295672667e-13       0.000000000000e+00       3.271695157275e-11      -5.426681195146e-12      -2.207892335655e-15 
   87       2.290613455607e-10       3.415339170688e-14      -4.592178593443e-13       0.000000000000e+00       3.179337427997e-11      -5.250429787748e-12      -2.334478207244e-15 
   88       2.312381423943e-10       3.530454759679e-14      -4.960518893752e-13       0.000000000000e+00       3.090541022097e-11      -5.081033548264e-12      -2.574297912859e-15 
   89       2.334330649366e-10       3.647417014866e-14      -5.337516163662e-13       0.000000000000e+00       3.005163257066e-11      -4.918370385093e-12      -2.896681959163e-15 
   90       2.356462860048e-10       3.766200709262e-14      -5.723391096187e-13       0.000000000000e+00       2.923012543200e-11      -4.762239777288e-12      -3.267696875337e-15 
   91       2.378777605516e-10       3.886779068701e-14      -6.118386273303e-13       0.000000000000e+00       2.843846581104e-11      -4.612359774105e-12      -3.650049900106e-15 
   92       2.401272156180e-10       4.009123758523e-14      -6.522766951963e-13       0.000000000000e+00       2.767370559197e-11      -4.468363994543e-12      -4.002993668762e-15 
   93       2.423943790249e-10       4.133204502113e-14      -6.936751983708e-13       0.000000000000e+00       2.693306999050e-11      -4.329886631256e-12      -4.290875202650e-15 
   94       2.446797266182e-10       4.258987899822e-14      -7.360292981470e-13       0.000000000000e+00       2.621621222887e-11      -4.196838603731e-12      -4.510460695382e-15 
   95       2.469838293561e-10       4.386438406969e-14      -7.793263238157e-13       0.000000000000e+00       2.552326621564e-11      -4.069167584282e-12      -4.667563274694e-15 
   96       2.493071179038e-10       4.515518668040e-14      -8.235524462969e-13       0.000000000000e+00       2.485415220201e-11      -3.946771925989e-12      -4.768787910945e-15 
   97       2.516498758635e-10       4.646189498319e-14      -8.686926608365e-13       0.000000000000e+00       2.420856859178e-11      -3.829498870258e-12      -4.821554763059e-15 
   98       2.540122330039e-10       4.778409865526e-14      -9.147307697029e-13       0.000000000000e+00       2.358598375145e-11      -3.717142754396e-12      -4.834122524477e-15 
   99       2.563941584905e-10       4.912136871441e-14      -9.616493648845e-13       0.000000000000e+00       2.298562782022e-11      -3.609443219168e-12      -4.815611769099e-15 
  100       2.587954541149e-10       5.047325733545e-14      -1.009429810786e-12       0.000000000000e+00       2.240648452005e-11      -3.506083416373e-12      -4.776028297235e-15 
  101       2.612157475247e-10       5.183929766652e-14      -1.058052226926e-12       0.000000000000e+00       2.184728296568e-11      -3.406688216404e-12      -4.726286481552e-15 
  102       2.636544854538e-10       5.321900364535e-14      -1.107495470632e-12       0.000000000000e+00       2.130648947469e-11      -3.310822415816e-12      -4.678232613017e-15 
  103       2.661109269513e-10       5.461186981568e-14      -1.157737119741e-12       0.000000000000e+00       2.078229937749e-11      -3.217988944894e-12      -4.644668246846e-15 
  104       2.685843996405e-10       5.601736001864e-14      -1.208754458483e-12       0.000000000000e+00       2.027304663262e-11      -3.127737647708e-12      -4.636617184118e-15 
  105       2.710751224993e-10       5.743487212295e-14      -1.260527624088e-12       0.000000000000e+00       1.977851332999e-11      -3.040012218301e-12      -4.654655668664e-15 
  106       2.735834821213e-10       5.886376816567e-14      -1.313036854964e-12       0.000000000000e+00       1.929878263748e-11      -2.954847007086e-12      -4.696449097555e-15 
  107       2.761097757789e-10       6.030338474947e-14      -1.366261519256e-12       0.000000000000e+00       1.883383323693e-11      -2.872260063048e-12      -4.759396942138e-15 
