# dimensionless total lensed [l(l+1)/2pi] C_l's
# for l=2 to 2500, i.e. number of multipoles equal to 2499
#
# -> if you prefer output in CAMB/HealPix/LensPix units/order, set 'format' to 'camb' in input file
# -> if you don't want to see such a header, set 'headers' to 'no' in input file
# -> for CMB lensing (phi), these are C_l^phi-phi for the lensing potential.
#    Remember the conversion factors:
#    C_l^dd (deflection) = l(l+1) C_l^phi-phi
#    C_l^gg (shear/convergence) = 1/4 (l(l+1))^2 C_l^phi-phi
#
# 1:l     2:TT                     3:EE                     4:TE                     5:BB                     6:phiphi                 7:TPhi                   8:Ephi               
    2       2.022587704153e-10       7.067316924532e-15       3.162801756189e-13       1.730930939777e-19       5.121319726440e-09       5.615411548743e-10      -2.251752332053e-12 
    3       2.175018845506e-10       1.157407525603e-14       3.385085712424e-13       3.463046960364e-19       3.071352905391e-09       4.691280554108e-10      -1.899643904682e-12 
    4       2.189766235871e-10       1.224849093216e-14       3.594111969138e-13       5.774342603410e-19       2.106217249636e-09       3.924717910713e-10      -1.380752585850e-12 
    5       2.139426009840e-10       9.872916365867e-15       3.841808781938e-13       8.666299501088e-19       1.561218561387e-09       3.321468770087e-10      -8.687998904347e-13 
    6       2.064474629804e-10       6.525155424467e-15       4.006979231986e-13       1.214068797035e-18       1.215287936689e-09       2.845245780525e-10      -4.311933808000e-13 
    7       1.984716008820e-10       3.845082403897e-15       4.009246721508e-13       1.619951701593e-18       9.792202676807e-10       2.464818593691e-10      -9.825253457262e-14 
    8       1.910028785232e-10       2.378388691638e-15       3.830115232906e-13       2.084497858920e-18       8.097206632440e-10       2.156585931177e-10       1.234086414330e-13 
    9       1.844208513419e-10       1.834553213877e-15       3.507075842198e-13       2.607938814222e-18       6.829608227347e-10       1.903960600514e-10       2.432052994020e-13 
   10       1.788430883628e-10       1.666955076006e-15       3.109725377199e-13       3.190512363782e-18       5.849482813845e-10       1.695227027936e-10       2.806667225080e-13 
   11       1.742727973852e-10       1.501442866788e-15       2.711191646274e-13       3.832456521372e-18       4.981369029990e-10       1.526967556377e-10       2.610311308689e-13 
   12       1.705501835636e-10       1.247320389422e-15       2.368256018324e-13       4.534003765015e-18       4.363935793664e-10       1.377484574821e-10       2.066994224731e-13 
   13       1.675315162559e-10       9.847494688516e-16       2.114341946365e-13       5.295375765864e-18       3.856509960199e-10       1.249577266283e-10       1.400929008151e-13 
   14       1.651198744143e-10       8.081540756794e-16       1.961494558831e-13       6.116778779986e-18       3.433812809231e-10       1.140009369930e-10       7.747683733023e-14 
   15       1.632923970827e-10       7.445523452148e-16       1.904558542515e-13       6.998399855925e-18       3.077528936485e-10       1.045319209803e-10       2.893668329082e-14 
   16       1.619485932932e-10       7.617321699875e-16       1.926204874980e-13       7.940403977142e-18       2.774109461381e-10       9.623947965112e-11      -1.197802069654e-15 
   17       1.610066253767e-10       8.162605855636e-16       2.002557795389e-13       8.942932220272e-18       2.513350502243e-10       8.880517953585e-11      -1.350950395681e-14 
   18       1.603263161138e-10       8.879719894677e-16       2.107942683577e-13       1.000610048414e-17       2.286607112264e-10       8.214800350588e-11      -1.177168821659e-14 
   19       1.599607893619e-10       9.843931442511e-16       2.223659202854e-13       1.113000218085e-17       2.090350984147e-10       7.626059248504e-11      -8.404029638759e-16 
   20       1.599198497054e-10       1.119186819698e-15       2.330234069179e-13       1.231470419355e-17       1.917166009669e-10       7.098666436805e-11       1.285666151123e-14 
   21       1.601607842052e-10       1.294250589495e-15       2.420485943038e-13       1.356025626882e-17       1.764414459622e-10       6.624498585490e-11       2.510033812413e-14 
   22       1.605695781359e-10       1.505556267100e-15       2.491898865793e-13       1.486668632633e-17       1.628509419460e-10       6.191047183110e-11       3.234745707768e-14 
   23       1.611658253437e-10       1.746702028087e-15       2.546523158334e-13       1.623401218009e-17       1.507643805308e-10       5.797320185775e-11       3.369824732998e-14 
   24       1.619695956969e-10       2.011051052716e-15       2.588905296027e-13       1.766223680932e-17       1.399088714783e-10       5.441427703967e-11       2.955689159792e-14 
   25       1.629681749919e-10       2.302790542920e-15       2.624271936076e-13       1.915136265257e-17       1.301606390635e-10       5.121414480059e-11       2.158239149540e-14 
   26       1.641097305670e-10       2.628994711973e-15       2.657945798865e-13       2.070138580769e-17       1.213469923644e-10       4.831552992502e-11       1.215063475723e-14 
   27       1.653727129848e-10       2.990247576561e-15       2.690912810029e-13       2.231230889541e-17       1.133662857885e-10       4.565520697049e-11       3.137833373218e-15 
   28       1.667299435681e-10       3.385015825959e-15       2.722166560705e-13       2.398413734230e-17       1.060854281933e-10       4.315511687574e-11      -3.745071437805e-15 
   29       1.681935350667e-10       3.813492701946e-15       2.748782391386e-13       2.571689585392e-17       9.946949357934e-11       4.081751228200e-11      -7.939302637054e-15 
   30       1.697690116945e-10       4.276216262440e-15       2.766372130553e-13       2.751061802073e-17       9.344939583267e-11       3.865392393025e-11      -9.287883447688e-15 
   31       1.714440306101e-10       4.773886969161e-15       2.769993562076e-13       2.936534652729e-17       8.790485765858e-11       3.665897108839e-11      -7.880092219859e-15 
   32       1.732195356927e-10       5.308766150759e-15       2.756813037411e-13       3.128114764922e-17       8.280896655700e-11       3.482491749463e-11      -4.587880632003e-15 
   33       1.750859699382e-10       5.883831120982e-15       2.724365748393e-13       3.325810495838e-17       7.812747799048e-11       3.312888244890e-11      -7.731747233997e-16 
   34       1.770226514919e-10       6.501851262474e-15       2.670425241820e-13       3.529631684991e-17       7.379699674644e-11       3.153806702302e-11       2.134293830013e-15 
   35       1.790316349979e-10       7.163340236768e-15       2.595026399170e-13       3.739589490460e-17       6.979651364950e-11       3.004816905650e-11       3.722228474748e-15 
   36       1.811130376330e-10       7.867858945823e-15       2.499180667401e-13       3.955696779515e-17       6.609501064511e-11       2.865633007512e-11       3.880983787947e-15 
   37       1.832594346494e-10       8.614976220499e-15       2.384123586682e-13       4.177967581818e-17       6.264559192913e-11       2.735373484877e-11       2.603972775042e-15 
   38       1.854717377400e-10       9.405822450887e-15       2.250449890969e-13       4.406414498198e-17       5.944006276274e-11       2.613816282307e-11       2.754642516074e-16 
   39       1.877467764193e-10       1.024203886752e-14       2.098723556028e-13       4.641050643910e-17       5.646891784567e-11       2.500433587436e-11      -2.510314395034e-15 
   40       1.900718768913e-10       1.112537084532e-14       1.929723111526e-13       4.881890470556e-17       5.370472071455e-11       2.393975675437e-11      -5.014172166173e-15 
   41       1.924315252059e-10       1.205737966290e-14       1.744027825073e-13       5.128948446156e-17       5.111182519702e-11       2.292917350645e-11      -6.534280307770e-15 
   42       1.948321625741e-10       1.303844780294e-14       1.540588857359e-13       5.382234338624e-17       4.868311849673e-11       2.197122514457e-11      -7.047041368807e-15 
   43       1.972839234149e-10       1.406846183495e-14       1.317710741031e-13       5.641756564901e-17       4.641259775242e-11       2.106616127263e-11      -6.759085261770e-15 
   44       1.997933689971e-10       1.514706689142e-14       1.073417331841e-13       5.907523480358e-17       4.428433289214e-11       2.021094859184e-11      -5.937332337932e-15 
   45       2.023637977963e-10       1.627379267197e-14       8.058785573041e-14       6.179542008224e-17       4.227826662070e-11       1.940088170836e-11      -4.871788675441e-15 
   46       2.049972152669e-10       1.744850753397e-14       5.148865709018e-14       6.457813035727e-17       4.039155094191e-11       1.863564004052e-11      -3.741623030219e-15 
   47       2.076922830377e-10       1.867107766641e-14       2.007893146033e-14       6.742334644144e-17       3.862224040310e-11       1.791457232642e-11      -2.715581447969e-15 
   48       2.104433217476e-10       1.994123458126e-14      -1.359096020497e-14       7.033103285888e-17       3.696285021073e-11       1.723480416785e-11      -1.990990889314e-15 
   49       2.132399577723e-10       2.125856990986e-14      -4.945438294084e-14       7.330113706991e-17       3.539994287845e-11       1.659107076280e-11      -1.795233918527e-15 
   50       2.160710148349e-10       2.262270248181e-14      -8.744271774757e-14       7.633358680764e-17       3.391823007634e-11       1.597736616802e-11      -2.309586330684e-15 
   51       2.189382537468e-10       2.403384509913e-14      -1.275344451391e-13       7.942828303360e-17       3.251514974714e-11       1.539280691122e-11      -3.412936795973e-15 
   52       2.218457515097e-10       2.549238261183e-14      -1.697181622376e-13       8.258510373012e-17       3.118953127924e-11       1.483707085812e-11      -4.871051899709e-15 
   53       2.247958325213e-10       2.699871591655e-14      -2.139787485337e-13       8.580390477811e-17       2.993723002560e-11       1.430863994697e-11      -6.406006094363e-15 
   54       2.277889150610e-10       2.855326486038e-14      -2.602973643843e-13       8.908451909302e-17       2.875092643189e-11       1.380471840484e-11      -7.694002879512e-15 
   55       2.308245621830e-10       3.015623172380e-14      -3.086598000913e-13       9.242677638333e-17       2.762239349920e-11       1.332215905685e-11      -8.448132079179e-15 
   56       2.339052917936e-10       3.180681621204e-14      -3.590839554008e-13       9.583057015313e-17       2.655041897709e-11       1.286069908424e-11      -8.695707996842e-15 
   57       2.370334441874e-10       3.350381053702e-14      -4.115991838709e-13       9.929580583107e-17       2.553449937045e-11       1.242038484755e-11      -8.566011637607e-15 
   58       2.402099562986e-10       3.524581546797e-14      -4.662388571853e-13       1.028223815471e-16       2.457244160864e-11       1.200059263845e-11      -8.212496700151e-15 
   59       2.434342551122e-10       3.703123390723e-14      -5.230406889989e-13       1.064101880718e-16       2.366025834245e-11       1.159998617241e-11      -7.813919955265e-15 
   60       2.467041510750e-10       3.885826446592e-14      -5.820470587834e-13       1.100591087562e-16       2.279206324108e-11       1.121647408138e-11      -7.575471624409e-15 
   61       2.500170737673e-10       4.072512285693e-14      -6.432892754359e-13       1.137690516883e-16       2.196172457652e-11       1.084785572058e-11      -7.678641643208e-15 
   62       2.533743441643e-10       4.263077867749e-14      -7.067355078924e-13       1.175400547354e-16       2.116849657273e-11       1.049402414497e-11      -8.115111369624e-15 
   63       2.567776765500e-10       4.457437335806e-14      -7.723316884617e-13       1.213722040799e-16       2.041247202837e-11       1.015518443481e-11      -8.817413281201e-15 
   64       2.602278581440e-10       4.655500772671e-14      -8.400163596779e-13       1.252656050246e-16       1.969288762362e-11       9.831188757351e-12      -9.706418644323e-15 
   65       2.637246851015e-10       4.857174281341e-14      -9.097204885668e-13       1.292203829549e-16       1.900807500621e-11       9.521515699115e-12      -1.069084132115e-14 
   66       2.672668985134e-10       5.062360065419e-14      -9.813672809123e-13       1.332366843006e-16       1.835541187760e-11       9.225249598295e-12      -1.166674157658e-14 
   67       2.708521204062e-10       5.270956509539e-14      -1.054871995523e-12       1.373146774971e-16       1.773127307903e-11       8.941059877094e-12      -1.251702988517e-14 
   68       2.744779133293e-10       5.482839803733e-14      -1.130150516334e-12       1.414545540659e-16       1.713200911204e-11       8.667581703949e-12      -1.313761411247e-14 
   69       2.781453514905e-10       5.697804313077e-14      -1.207147500843e-12       1.456565299597e-16       1.655722127687e-11       8.404693746038e-12      -1.352310247438e-14 
   70       2.818560615790e-10       5.915610214326e-14      -1.285813627833e-12       1.499208462184e-16       1.600706534145e-11       8.152463384400e-12      -1.369765465947e-14 
   71       2.856111285705e-10       6.136000498317e-14      -1.366097381761e-12       1.542477698227e-16       1.548126059362e-11       7.910758075051e-12      -1.369005686425e-14 
   72       2.894110604640e-10       6.358700578366e-14      -1.447945091006e-12       1.586375946587e-16       1.497906720436e-11       7.679234945526e-12      -1.353390701637e-14 
   73       2.932557530174e-10       6.583417898674e-14      -1.531300966123e-12       1.630906424826e-16       1.449926359100e-11       7.457330391429e-12      -1.326779999777e-14 
   74       2.971444544844e-10       6.809841542720e-14      -1.616107138093e-12       1.676072638855e-16       1.404012378038e-11       7.244249672981e-12      -1.293551286785e-14 
   75       3.010757303500e-10       7.037641841666e-14      -1.702303696580e-12       1.721878392582e-16       1.359939477210e-11       7.038956511565e-12      -1.258619008664e-14 
   76       3.050480825443e-10       7.266500432250e-14      -1.789829127522e-12       1.768327424086e-16       1.317486085917e-11       6.840441287059e-12      -1.226421434398e-14 
   77       3.090620153932e-10       7.496207624098e-14      -1.878621633498e-12       1.815422216220e-16       1.276620543376e-11       6.648605089540e-12      -1.197627714945e-14 
   78       3.131182840866e-10       7.726582158843e-14      -1.968618124750e-12       1.863164985635e-16       1.237344914163e-11       6.463518726687e-12      -1.171861202026e-14 
   79       3.172172521336e-10       7.957442564806e-14      -2.059753886895e-12       1.911558038968e-16       1.199638261447e-11       6.285153810032e-12      -1.148675030584e-14 
   80       3.213588695196e-10       8.188607389791e-14      -2.151962627356e-12       1.960603774834e-16       1.163455586925e-11       6.113378064438e-12      -1.127549490600e-14 
   81       3.255426508623e-10       8.419895433873e-14      -2.245176521814e-12       2.010304685814e-16       1.128726770733e-11       5.947950637580e-12      -1.107889398907e-14 
   82       3.297676535695e-10       8.651125982190e-14      -2.339326260639e-12       2.060663360444e-16       1.095355511382e-11       5.788517409435e-12      -1.089021471011e-14 
   83       3.340324559951e-10       8.882119037734e-14      -2.434341095339e-12       2.111682485201e-16       1.063218265674e-11       5.634606301753e-12      -1.070191692905e-14 
   84       3.383356166204e-10       9.112680473645e-14      -2.530146102745e-12       2.163364818111e-16       1.032194548611e-11       5.485748853464e-12      -1.050745335274e-14 
   85       3.426771869069e-10       9.342554152021e-14      -2.626653354757e-12       2.215713100160e-16       1.002265926604e-11       5.341878378565e-12      -1.030707041515e-14 
   86       3.470574103600e-10       9.571462257325e-14      -2.723769363068e-12       2.268730132772e-16       9.734315679462e-12       5.202989521436e-12      -1.010292534502e-14 
   87       3.514762502477e-10       9.799119650779e-14      -2.821397730953e-12       2.322418806385e-16       9.456778167925e-12       5.069015329080e-12      -9.897349594131e-15 
   88       3.559333758422e-10       1.002523384969e-13      -2.919439152938e-12       2.376782101956e-16       9.189776601404e-12       4.939824682719e-12      -9.692853251634e-15 
   89       3.604281486611e-10       1.024950500682e-13      -3.017791414493e-12       2.431823092481e-16       8.932901948131e-12       4.815219729393e-12      -9.492129458428e-15 
   90       3.649596087081e-10       1.047162588966e-13      -3.116349391701e-12       2.487544944499e-16       8.685600944413e-12       4.694933313557e-12      -9.298058821526e-15 
   91       3.695264607151e-10       1.069128185984e-13      -3.215005050947e-12       2.543950919612e-16       8.447170764456e-12       4.578626408681e-12      -9.113713828417e-15 
   92       3.741270603829e-10       1.090815085243e-13      -3.313647448593e-12       2.601044375990e-16       8.216753690192e-12       4.465885548847e-12      -8.942363261434e-15 
   93       3.787597869025e-10       1.112191858424e-13      -3.412166475065e-12       2.658829122515e-16       7.993542046304e-12       4.356324085422e-12      -8.786716283164e-15 
   94       3.834242544940e-10       1.133232684015e-13      -3.510464731948e-12       2.717310538835e-16       7.777439840351e-12       4.249908956270e-12      -8.646515054655e-15 
   95       3.881202584924e-10       1.153913244466e-13      -3.608447448925e-12       2.776494627348e-16       7.568491241434e-12       4.146678542615e-12      -8.520586523804e-15 
   96       3.928473969607e-10       1.174209286582e-13      -3.706018948936e-12       2.836387681844e-16       7.366676770430e-12       4.046642095085e-12      -8.407564551287e-15 
   97       3.976050622330e-10       1.194096640365e-13      -3.803082699253e-12       2.896996293866e-16       7.171910856097e-12       3.949778590505e-12      -8.305883888017e-15 
   98       4.023924324588e-10       1.213551237853e-13      -3.899541362566e-12       2.958327359057e-16       6.984039391170e-12       3.856035588682e-12      -8.213774152598e-15 
   99       4.072084631461e-10       1.232549131952e-13      -3.995296848053e-12       3.020388083514e-16       6.802837288457e-12       3.765328089193e-12      -8.129253808777e-15 
  100       4.120518787053e-10       1.251066515283e-13      -4.090250362468e-12       3.083185990143e-16       6.628006036944e-12       3.677537388172e-12      -8.050124142904e-15 
  101       4.169211639928e-10       1.269079739014e-13      -4.184302461215e-12       3.146728925008e-16       6.459171257887e-12       3.592509935103e-12      -7.973963241381e-15 
  102       4.218145558547e-10       1.286565331700e-13      -4.277353099429e-12       3.211025063684e-16       6.295880260915e-12       3.510056189598e-12      -7.898119968121e-15 
  103       4.267300346704e-10       1.303500018123e-13      -4.369301683056e-12       3.276082917611e-16       6.137599600129e-12       3.429949478197e-12      -7.819707941997e-15 
  104       4.316656387054e-10       1.319861209974e-13      -4.460047381215e-12       3.341910774147e-16       5.983836631209e-12       3.351979402063e-12      -7.736212739203e-15 
  105       4.366204737455e-10       1.335628512825e-13      -4.549490001332e-12       3.408514916901e-16       5.834528147623e-12       3.276122738982e-12      -7.647419887686e-15 
  106       4.415938247191e-10       1.350782458791e-13      -4.637529327998e-12       3.475901175714e-16       5.689699931776e-12       3.202393603933e-12      -7.553737301354e-15 
  107       4.465848402178e-10       1.365304076606e-13      -4.724064925548e-12       3.544075471623e-16       5.549346373881e-12       3.130790422561e-12      -7.455606020003e-15 
