# Matter power spectrum P(k) at redshift z=0
# for k=0.000782008 to 826.306 h/Mpc,
# number of wavenumbers equal to 521
#    1:k (h/Mpc)              2:P (Mpc/h)^3        
       7.820083848374e-04       1.738679745044e-04 
       6.176822371528e-03       1.269200713772e-03 
       1.871764651806e-02       3.683700262782e-03 
       3.155027742853e-02       6.076206693834e-03 
       4.440693395037e-02       8.420816388813e-03 
       5.727028818301e-02       1.072273828480e-02 
       7.013654944960e-02       1.298535544246e-02 
       8.300442891518e-02       1.521080670243e-02 
       9.587337329377e-02       1.740029434392e-02 
       1.087431082837e-01       1.955466729648e-02 
       1.216134842655e-01       2.167465232084e-02 
       1.344844141732e-01       2.376041840790e-02 
       1.473558451604e-01       2.581242290492e-02 
       1.602277444086e-01       2.783114886180e-02 
       1.731000914808e-01       2.981698531461e-02 
       1.859728739519e-01       3.177025155329e-02 
       1.988460847869e-01       3.369126740982e-02 
       2.117197207044e-01       3.558032367207e-02 
       2.245937811191e-01       3.743780525736e-02 
       2.374682674373e-01       3.926397368852e-02 
       2.503431825766e-01       4.105922159497e-02 
       2.632185306308e-01       4.282382432860e-02 
       2.760943166317e-01       4.455821259346e-02 
       2.889705463762e-01       4.626265293404e-02 
       3.018472263006e-01       4.793757388545e-02 
       3.147243633863e-01       4.958330950145e-02 
       3.276019650894e-01       5.120024803212e-02 
       3.404800392882e-01       5.278873557056e-02 
       3.533585942418e-01       5.434943824902e-02 
       3.662376385597e-01       5.588216457996e-02 
       3.791171811782e-01       5.738745931863e-02 
       3.919972313420e-01       5.886597292283e-02 
       4.048777985909e-01       6.031825345356e-02 
       4.177588927494e-01       6.174407061139e-02 
       4.306405239188e-01       6.314295467357e-02 
       4.435227024726e-01       6.451712000034e-02 
       4.564054390518e-01       6.586543331701e-02 
       4.692887445638e-01       6.718867517006e-02 
       4.821726301805e-01       6.848871888591e-02 
       4.950571073389e-01       6.976325302565e-02 
       5.079421877415e-01       7.101413184921e-02 
       5.208278833580e-01       7.224213152858e-02 
       5.337142064273e-01       7.344574690244e-02 
       5.466011694602e-01       7.462788920691e-02 
       5.594887852423e-01       7.578563643680e-02 
       5.723770668380e-01       7.692226206127e-02 
       5.852660275935e-01       7.803721394530e-02 
       5.981556811417e-01       7.912866162221e-02 
       6.110460414062e-01       8.020017905223e-02 
       6.239371226064e-01       8.124983027010e-02 
       6.368289392619e-01       8.227864212216e-02 
       6.497215061985e-01       8.328729885412e-02 
       6.626148385529e-01       8.427660056005e-02 
       6.755089517789e-01       8.524485480715e-02 
       6.884038616527e-01       8.619232038407e-02 
       7.012995842796e-01       8.712221281666e-02 
       7.141961360997e-01       8.803138720337e-02 
       7.270935338946e-01       8.892160633308e-02 
       7.399917947941e-01       8.979409611469e-02 
       7.528909362828e-01       9.064712844721e-02 
       7.657909762070e-01       9.148214021606e-02 
       7.786919327825e-01       9.230042248024e-02 
       7.915938246010e-01       9.309987927819e-02 
       8.044966706386e-01       9.388235296062e-02 
       8.174004902629e-01       9.464630242967e-02 
       8.303053032410e-01       9.539339074942e-02 
       8.432111297479e-01       9.612311344458e-02 
       8.561179903746e-01       9.683831265007e-02 
       8.690259061366e-01       9.753607152633e-02 
       8.819348984825e-01       9.821569355575e-02 
       8.948449893030e-01       9.888200898162e-02 
       9.077562009401e-01       9.953182760730e-02 
       9.206685561960e-01       1.001677596303e-01 
       9.335820783433e-01       1.007838299760e-01 
       9.464967911337e-01       1.013854016562e-01 
       9.594127188090e-01       1.019751976927e-01 
       9.723298861106e-01       1.025475970169e-01 
       9.852483182900e-01       1.031128897935e-01 
       9.981680411194e-01       1.036505756251e-01 
       1.011089080903e+00       1.041796725899e-01 
       1.024011464487e+00       1.046949656488e-01 
       1.036935219272e+00       1.051970167494e-01 
       1.049860373225e+00       1.056842971795e-01 
       1.062786954889e+00       1.061578570679e-01 
       1.075714993397e+00       1.066203605833e-01 
       1.088644518485e+00       1.070671997510e-01 
       1.101575560502e+00       1.075012902444e-01 
       1.114508150426e+00       1.079237551313e-01 
       1.127442319874e+00       1.083320500549e-01 
       1.140378101119e+00       1.087285174920e-01 
       1.153315527101e+00       1.091131414276e-01 
       1.166254631441e+00       1.094823396530e-01 
       1.179195448460e+00       1.098440037722e-01 
       1.192138013186e+00       1.101885840533e-01 
       1.205082361376e+00       1.105256655443e-01 
       1.218028529529e+00       1.108495058379e-01 
       1.230976554900e+00       1.111613761753e-01 
       1.243926475519e+00       1.114619889593e-01 
       1.256878330203e+00       1.117518518589e-01 
       1.269832158581e+00       1.120282633199e-01 
       1.282788001102e+00       1.122950209790e-01 
       1.295745899058e+00       1.125535832124e-01 
       1.308705894601e+00       1.127971451211e-01 
       1.321668030761e+00       1.130344126068e-01 
       1.334632351465e+00       1.132586965974e-01 
       1.347598901555e+00       1.134731781790e-01 
       1.360567726811e+00       1.136774485760e-01 
       1.373538873967e+00       1.138702388694e-01 
       1.386512390734e+00       1.140544839809e-01 
       1.399488325822e+00       1.142284293185e-01 
       1.412466728959e+00       1.143931293405e-01 
       1.425447650914e+00       1.145481938005e-01 
       1.438431143520e+00       1.146950658531e-01 
       1.451417259697e+00       1.148326485796e-01 
       1.464406053476e+00       1.149590905785e-01 
       1.477397580021e+00       1.150774956776e-01 
       1.490391895657e+00       1.151866350473e-01 
       1.503389057892e+00       1.152868155525e-01 
       1.516389125445e+00       1.153775653931e-01 
       1.529392158272e+00       1.154610425809e-01 
       1.542398217594e+00       1.155346750264e-01 
       1.555407365921e+00       1.156023772604e-01 
       1.568419667085e+00       1.156601766543e-01 
       1.581435186267e+00       1.157092783795e-01 
       1.594453990027e+00       1.157508197972e-01 
       1.607476146334e+00       1.157842673625e-01 
       1.620501724596e+00       1.158110935806e-01 
       1.633530795696e+00       1.158286421332e-01 
       1.646563432020e+00       1.158395946443e-01 
       1.659599707494e+00       1.158417602169e-01 
       1.672639697616e+00       1.158379280189e-01 
       1.685683479493e+00       1.158260733224e-01 
       1.698731131874e+00       1.158073157051e-01 
       1.711782735190e+00       1.157813452041e-01 
       1.724838371590e+00       1.157497235892e-01 
       1.737898124980e+00       1.157091116241e-01 
       1.750962081064e+00       1.156645441985e-01 
       1.764030327382e+00       1.156108483519e-01 
       1.777102953353e+00       1.155509025912e-01 
       1.790180050317e+00       1.154844909178e-01 
       1.803261711581e+00       1.154114519865e-01 
       1.816348032459e+00       1.153335838175e-01 
       1.829439110324e+00       1.152467153181e-01 
       1.842535044649e+00       1.151568354096e-01 
       1.855635937060e+00       1.150596676349e-01 
       1.868741891384e+00       1.149548127718e-01 
       1.881853013696e+00       1.148463707998e-01 
       1.894969412378e+00       1.147310126660e-01 
       1.908091198167e+00       1.146101054997e-01 
       1.921218484211e+00       1.144864679657e-01 
       1.934351386125e+00       1.143542446084e-01 
       1.947490022052e+00       1.142173260260e-01 
       1.960634512716e+00       1.140739610898e-01 
       1.973784981486e+00       1.139263898445e-01 
       1.986941554440e+00       1.137748087145e-01 
       2.000104360425e+00       1.136176380851e-01 
       2.013273531126e+00       1.134561487300e-01 
       2.026449201130e+00       1.132882236916e-01 
       2.039631507998e+00       1.131164378371e-01 
       2.052820592335e+00       1.129380657008e-01 
       2.066016597861e+00       1.127564337367e-01 
       2.079219671491e+00       1.125727855027e-01 
       2.092429963405e+00       1.123821073580e-01 
       2.105647627131e+00       1.121871915869e-01 
       2.118872819628e+00       1.119877124142e-01 
       2.132105701363e+00       1.117839045977e-01 
       2.145346436406e+00       1.115752799140e-01 
       2.158595192507e+00       1.113638876938e-01 
       2.171852141196e+00       1.111479008772e-01 
       2.185117457873e+00       1.109285282366e-01 
       2.198391321900e+00       1.107051601996e-01 
       2.211673916706e+00       1.104781596652e-01 
       2.224965429883e+00       1.102468673266e-01 
       2.238266053293e+00       1.100124993163e-01 
       2.251575983174e+00       1.097750219638e-01 
       2.264895420252e+00       1.095356486410e-01 
       2.278224569852e+00       1.092900974997e-01 
       2.291563642016e+00       1.090418184297e-01 
       2.304912851625e+00       1.087902314809e-01 
       2.318272418520e+00       1.085357195495e-01 
       2.331642567632e+00       1.082768620289e-01 
       2.345023529111e+00       1.080162858776e-01 
       2.358415538464e+00       1.077538188272e-01 
       2.371818836693e+00       1.074852660552e-01 
       2.385233670439e+00       1.072170968022e-01 
       2.398660292131e+00       1.069446486812e-01 
       2.412098960136e+00       1.066698927564e-01 
       2.425549938921e+00       1.063910312569e-01 
       2.439013499211e+00       1.061109779284e-01 
       2.452489918159e+00       1.058280377131e-01 
       2.465979479518e+00       1.055416453947e-01 
       2.479482473821e+00       1.052544803740e-01 
       2.492999198560e+00       1.049638466599e-01 
       2.506529958385e+00       1.046713007846e-01 
       2.520075065290e+00       1.043765802664e-01 
       2.533634838823e+00       1.040790443847e-01 
       2.547209606292e+00       1.037804998893e-01 
       2.560799702980e+00       1.034801323044e-01 
       2.574405472373e+00       1.031767023594e-01 
       2.588027266386e+00       1.028709054900e-01 
       2.601665445603e+00       1.025621727659e-01 
       2.615320379526e+00       1.022549110288e-01 
       2.628992446828e+00       1.019444020164e-01 
       2.642682035617e+00       1.016327055334e-01 
       2.656389543709e+00       1.013173146036e-01 
       2.670115378912e+00       1.010001581102e-01 
       2.683859959318e+00       1.006829740229e-01 
       2.697623713606e+00       1.003639302436e-01 
       2.711407081356e+00       1.000433693119e-01 
       2.725210513372e+00       9.972255204957e-02 
       2.739034472025e+00       9.939855582715e-02 
       2.752879431593e+00       9.907439950977e-02 
       2.766745878632e+00       9.874876948821e-02 
       2.780634312346e+00       9.842119445950e-02 
       2.794545244977e+00       9.809290230568e-02 
       2.808479202212e+00       9.776309442497e-02 
       2.822436723601e+00       9.743121866703e-02 
       2.836418362989e+00       9.709890285188e-02 
       2.850424688975e+00       9.676759316153e-02 
       2.864456285375e+00       9.643398145101e-02 
       2.878513751715e+00       9.609746496784e-02 
       2.892597703737e+00       9.576215264507e-02 
       2.906708773924e+00       9.542511075157e-02 
       2.920847612054e+00       9.508741367040e-02 
       2.935014885766e+00       9.474845261404e-02 
       2.949211281154e+00       9.441046420378e-02 
       2.963437503391e+00       9.406989217824e-02 
       2.977694277368e+00       9.372986746759e-02 
       2.991982348365e+00       9.338965377396e-02 
       3.006302482755e+00       9.304677519314e-02 
       3.020655468728e+00       9.270497129855e-02 
       3.035042117052e+00       9.236235506695e-02 
       3.049463261869e+00       9.201817428045e-02 
       3.063919761521e+00       9.167364960256e-02 
       3.078412499413e+00       9.132913564601e-02 
       3.092942384916e+00       9.098375422546e-02 
       3.107510354312e+00       9.063894453370e-02 
       3.122117371778e+00       9.029328285422e-02 
       3.136764430413e+00       8.994744257039e-02 
       3.151452553324e+00       8.959943675949e-02 
       3.166182794746e+00       8.925201792681e-02 
       3.180956241227e+00       8.890720619608e-02 
       3.195774012865e+00       8.855977207266e-02 
       3.210637264601e+00       8.821222622304e-02 
       3.225547187580e+00       8.786314652990e-02 
       3.240505010578e+00       8.751609930626e-02 
       3.255512001489e+00       8.716811209131e-02 
       3.270569468902e+00       8.682190616397e-02 
       3.285678763747e+00       8.647121628813e-02 
       3.300841281023e+00       8.612333762981e-02 
       3.316058461622e+00       8.577592102856e-02 
       3.331331794243e+00       8.542757048100e-02 
       3.346662817402e+00       8.507727202667e-02 
       3.362053121560e+00       8.472974409452e-02 
       3.377504351352e+00       8.438107409718e-02 
       3.393018207942e+00       8.403213497849e-02 
       3.408596451511e+00       8.368487830421e-02 
       3.424240903869e+00       8.333733848765e-02 
       3.439953451229e+00       8.298808097234e-02 
       3.455736047124e+00       8.263885479162e-02 
       3.471590715498e+00       8.229253881977e-02 
       3.487519553971e+00       8.194351932600e-02 
       3.503524737298e+00       8.159720435514e-02 
       3.519608521028e+00       8.124599530095e-02 
       3.535773245384e+00       8.089981312803e-02 
       3.552021339378e+00       8.055337773137e-02 
       3.568355325174e+00       8.020576550353e-02 
       3.584777822724e+00       7.985923577648e-02 
       3.601291554689e+00       7.951029848982e-02 
       3.617899351683e+00       7.916340935602e-02 
       3.634604157838e+00       7.881630337742e-02 
       3.651409036743e+00       7.847116399973e-02 
       3.668317177766e+00       7.812280991058e-02 
       3.685331902803e+00       7.777805802299e-02 
       3.702456673475e+00       7.743072300595e-02 
       3.719695098828e+00       7.708451392697e-02 
       3.737050943554e+00       7.673798371493e-02 
       3.754528136797e+00       7.639255308760e-02 
       3.772130781590e+00       7.604676099441e-02 
       3.789863164960e+00       7.570240125792e-02 
       3.807729768784e+00       7.535678316401e-02 
       3.825735281448e+00       7.501032527431e-02 
       3.843884610382e+00       7.466776842868e-02 
       3.862182895556e+00       7.432062001509e-02 
       3.880635524016e+00       7.397607333348e-02 
       3.899248145574e+00       7.363174224805e-02 
       3.918026689747e+00       7.328770556572e-02 
       3.936977384061e+00       7.294348768151e-02 
       3.956106773885e+00       7.259616077824e-02 
       3.975421743902e+00       7.225490116619e-02 
       3.994929541422e+00       7.190915585748e-02 
       4.014637801705e+00       7.156222902390e-02 
       4.034554575509e+00       7.121776664605e-02 
       4.054688359104e+00       7.087298505000e-02 
       4.075048127008e+00       7.053118726540e-02 
       4.095643367754e+00       7.018287087985e-02 
       4.116484123026e+00       6.984064385810e-02 
       4.137581030539e+00       6.949246465158e-02 
       4.158945371104e+00       6.914665214494e-02 
       4.180589120367e+00       6.880170908621e-02 
       4.202525005789e+00       6.845673547554e-02 
       4.224766569501e+00       6.810850124134e-02 
       4.247328237770e+00       6.776343720946e-02 
       4.270225397914e+00       6.741357154771e-02 
       4.293474483636e+00       6.706608696593e-02 
       4.317093069884e+00       6.671751359953e-02 
       4.341099978519e+00       6.636857418016e-02 
       4.365515396296e+00       6.601799778591e-02 
       4.390361006866e+00       6.566995542153e-02 
       4.415660138824e+00       6.531437408501e-02 
       4.441437932165e+00       6.496175075836e-02 
       4.467721525887e+00       6.460872319047e-02 
       4.494540270010e+00       6.425593211121e-02 
       4.521925965824e+00       6.389801432604e-02 
       4.549913138903e+00       6.353933264466e-02 
       4.578539350275e+00       6.318337385453e-02 
       4.607845552168e+00       6.282250428315e-02 
       4.637876496019e+00       6.246078043078e-02 
       4.668681201991e+00       6.209714670990e-02 
       4.700313501127e+00       6.173042528498e-02 
       4.732832663662e+00       6.136159959474e-02 
       4.766304129900e+00       6.099243384126e-02 
       4.800800363723e+00       6.061576675684e-02 
       4.836401853344e+00       6.024035402530e-02 
       4.873198289646e+00       5.986067736211e-02 
       4.911289959622e+00       5.947238737602e-02 
       4.950789401605e+00       5.909121322466e-02 
       4.991823380500e+00       5.869273679571e-02 
       5.034535255993e+00       5.830223015581e-02 
       5.079087835474e+00       5.789836364600e-02 
       5.125666827347e+00       5.749123086160e-02 
       5.174485040846e+00       5.707244377908e-02 
       5.225787517028e+00       5.664858623447e-02 
       5.279857823947e+00       5.622007766850e-02 
       5.337025808469e+00       5.577912777613e-02 
       5.397677168207e+00       5.532781355099e-02 
       5.462265286737e+00       5.486459040037e-02 
       5.531325854531e+00       5.438640633063e-02 
       5.605494853058e+00       5.389126801911e-02 
       5.685530458295e+00       5.337500561543e-02 
       5.772339214273e+00       5.283424919051e-02 
       5.867006226008e+00       5.226408729501e-02 
       5.970827732187e+00       5.165534118770e-02 
       6.085341567982e+00       5.099893669627e-02 
       6.212345703750e+00       5.028395734051e-02 
       6.353886127536e+00       4.949049584543e-02 
       6.512182806499e+00       4.859603649650e-02 
       6.689450761170e+00       4.757708843707e-02 
       6.887577293982e+00       4.639587138529e-02 
       7.107663950452e+00       4.502224718616e-02 
       7.349552095740e+00       4.343242725645e-02 
       7.611573048151e+00       4.162104447380e-02 
       7.890746574670e+00       3.961135722375e-02 
       8.183403374897e+00       3.745605978462e-02 
       8.485921109752e+00       3.523484462254e-02 
       8.795240462370e+00       3.303429994130e-02 
       9.109050929511e+00       3.093547203309e-02 
       9.425737979870e+00       2.900454308449e-02 
       9.744230597455e+00       2.728705440484e-02 
       1.006384188239e+01       2.580543752485e-02 
       1.038414060617e+01       2.456050025458e-02 
       1.070485963254e+01       2.353649034709e-02 
       1.102583483223e+01       2.270357762297e-02 
       1.134696587094e+01       2.202125643765e-02 
       1.166819160154e+01       2.144735773942e-02 
       1.198947482868e+01       2.093537503549e-02 
       1.231079295247e+01       2.044378791346e-02 
       1.263213225074e+01       1.993770776766e-02 
       1.295348439515e+01       1.939113188134e-02 
       1.327484433234e+01       1.878809597486e-02 
       1.359620899655e+01       1.812756367914e-02 
       1.391757652802e+01       1.741584063215e-02 
       1.423894579866e+01       1.666908207823e-02 
       1.456031612421e+01       1.590804650131e-02 
       1.488168708962e+01       1.515562177863e-02 
       1.520305844316e+01       1.443341035210e-02 
       1.552443003212e+01       1.376028758298e-02 
       1.584580176391e+01       1.315015776915e-02 
       1.616717358234e+01       1.261101510630e-02 
       1.648854545333e+01       1.214477720414e-02 
       1.680991735623e+01       1.174879913920e-02 
