# dimensionless total [l(l+1)/2pi] C_l's
# for l=2 to 3000, i.e. number of multipoles equal to 2999
#
# -> if you prefer output in CAMB/HealPix/LensPix units/order, set 'format' to 'camb' in input file
# -> if you don't want to see such a header, set 'headers' to 'no' in input file
# -> for CMB lensing (phi), these are C_l^phi-phi for the lensing potential.
#    Remember the conversion factors:
#    C_l^dd (deflection) = l(l+1) C_l^phi-phi
#    C_l^gg (shear/convergence) = 1/4 (l(l+1))^2 C_l^phi-phi
#
# 1:l     2:TT                     3:EE                     4:TE                     5:BB                     6:phiphi                 7:TPhi                   8:Ephi               
    2       5.905274542947e-10       3.380864723204e-15       8.130452047018e-13       0.000000000000e+00       2.284683727968e-08      -2.957226334440e-09      -2.236502661869e-12 
    3       4.279875073617e-10       6.770811623844e-15       8.089440073706e-13       0.000000000000e+00       1.443976515617e-08      -1.917682214502e-09      -1.868375396528e-12 
    4       3.410634087739e-10       1.031383538760e-14       7.849685588172e-13       0.000000000000e+00       1.004904180026e-08      -1.374491412067e-09      -1.603888873525e-12 
    5       2.874231837253e-10       1.301770829756e-14       7.424876684829e-13       0.000000000000e+00       7.464531104872e-09      -1.048064027687e-09      -1.373659876804e-12 
    6       2.510985563512e-10       1.427716059518e-14       6.842887784452e-13       0.000000000000e+00       5.811552008302e-09      -8.327276141421e-10      -1.155253076225e-12 
    7       2.249894035692e-10       1.400139601218e-14       6.176920731363e-13       0.000000000000e+00       4.689084777676e-09      -6.815664749305e-10      -9.497182826779e-13 
    8       2.054982425848e-10       1.247461175957e-14       5.482784240950e-13       0.000000000000e+00       3.888061940464e-09      -5.704473520656e-10      -7.599726861297e-13 
    9       1.905250296152e-10       1.018588807504e-14       4.800891961448e-13       0.000000000000e+00       3.290471908028e-09      -4.857847541412e-10      -5.883900323752e-13 
   10       1.788155560420e-10       7.661875942715e-15       4.157806834655e-13       0.000000000000e+00       2.826410058865e-09      -4.193776077381e-10      -4.366282570963e-13 
   11       1.695392164833e-10       5.339554949129e-15       3.569455099260e-13       0.000000000000e+00       2.073588207650e-09      -3.461061550179e-10      -3.063955976146e-13 
   12       1.620777038961e-10       3.496913140238e-15       3.046401799045e-13       0.000000000000e+00       1.794398498285e-09      -3.035919325143e-10      -1.971693927852e-13 
   13       1.560790387845e-10       2.239513258824e-15       2.594858241665e-13       0.000000000000e+00       1.567703260490e-09      -2.683641234092e-10      -1.079880934313e-13 
   14       1.512691654462e-10       1.529181088880e-15       2.217949980995e-13       0.000000000000e+00       1.381012501320e-09      -2.390047167590e-10      -3.881275859256e-14 
   15       1.473625883005e-10       1.236067653036e-15       1.916990467571e-13       0.000000000000e+00       1.225371223951e-09      -2.140703580025e-10       1.243066065100e-14 
   16       1.442120364528e-10       1.195602847925e-15       1.690104382476e-13       0.000000000000e+00       1.094212596109e-09      -1.928280721070e-10       4.687545176078e-14 
   17       1.417056215322e-10       1.256083734824e-15       1.532376369910e-13       0.000000000000e+00       9.826388512538e-10      -1.744166041119e-10       6.710564126242e-14 
   18       1.396832646637e-10       1.304556723777e-15       1.437205934968e-13       0.000000000000e+00       8.864462940935e-10      -1.584594049540e-10       7.524504169095e-14 
   19       1.381186379735e-10       1.299374161639e-15       1.398897709549e-13       0.000000000000e+00       8.041873434985e-10      -1.447114550081e-10       7.338497993488e-14 
   20       1.369105743231e-10       1.222963318368e-15       1.405902269907e-13       0.000000000000e+00       7.321791117995e-10      -1.325021818544e-10       6.470672037014e-14 
   21       1.360231717601e-10       1.100983686295e-15       1.449402477998e-13       0.000000000000e+00       6.691488793152e-10      -1.216625300546e-10       5.126279190824e-14 
   22       1.353808294962e-10       9.788969502398e-16       1.518354563172e-13       0.000000000000e+00       6.135477988073e-10      -1.120140364543e-10       3.514101325304e-14 
   23       1.349728895447e-10       8.879914533428e-16       1.604404882089e-13       0.000000000000e+00       5.645192156221e-10      -1.034432761079e-10       1.803782011660e-14 
   24       1.347679350075e-10       8.533427186933e-16       1.698496274985e-13       0.000000000000e+00       5.208078217138e-10      -9.574967608796e-11       1.638138179174e-15 
   25       1.347468906305e-10       8.768779990290e-16       1.794141193287e-13       0.000000000000e+00       4.818397313360e-10      -8.882660770766e-11      -1.301988237338e-14 
   26       1.348693937784e-10       9.484874475495e-16       1.885250165382e-13       0.000000000000e+00       4.468603940435e-10      -8.253575229086e-11      -2.514369504929e-14 
   27       1.351312001387e-10       1.048194644876e-15       1.968602694884e-13       0.000000000000e+00       4.154083951822e-10      -7.683228727223e-11      -3.433151397580e-14 
   28       1.355212622609e-10       1.151972703150e-15       2.041999132578e-13       0.000000000000e+00       3.868967879917e-10      -7.165933177321e-11      -4.040969628190e-14 
   29       1.360382848135e-10       1.250270212080e-15       2.104778862367e-13       0.000000000000e+00       3.611548092365e-10      -6.698678191787e-11      -4.343996007321e-14 
   30       1.366615391244e-10       1.336981666939e-15       2.156987245500e-13       0.000000000000e+00       3.378804597296e-10      -6.274334163066e-11      -4.369767230810e-14 
   31       1.373536267931e-10       1.407756409656e-15       2.199168228952e-13       0.000000000000e+00       3.165670822870e-10      -5.882211027778e-11      -4.162315267092e-14 
   32       1.381170522198e-10       1.470248527460e-15       2.232812938602e-13       0.000000000000e+00       2.970892658796e-10      -5.520798282683e-11      -3.765939157594e-14 
   33       1.389550297348e-10       1.538033395153e-15       2.260157382370e-13       0.000000000000e+00       2.792958291929e-10      -5.189094820742e-11      -3.238041447442e-14 
   34       1.398601142582e-10       1.625401446444e-15       2.283779797041e-13       0.000000000000e+00       2.629210704518e-10      -4.883998482904e-11      -2.645806874259e-14 
   35       1.408319312267e-10       1.737558171483e-15       2.305433567059e-13       0.000000000000e+00       2.478713116086e-10      -4.603804121290e-11      -2.034992971542e-14 
   36       1.418631877369e-10       1.877082928195e-15       2.326846217861e-13       0.000000000000e+00       2.340157298447e-10      -4.345510877828e-11      -1.451554985243e-14 
   37       1.429400549199e-10       2.045682419407e-15       2.349712596296e-13       0.000000000000e+00       2.211621365447e-10      -4.105004862603e-11      -9.422270670107e-15 
   38       1.440640133600e-10       2.241415689839e-15       2.374564385444e-13       0.000000000000e+00       2.092717392701e-10      -3.881602325012e-11      -5.263931400873e-15 
   39       1.452356020640e-10       2.460444884061e-15       2.401521947672e-13       0.000000000000e+00       1.983020439521e-10      -3.674760049379e-11      -2.150978475732e-15 
   40       1.464475882027e-10       2.697666840740e-15       2.430580691615e-13       0.000000000000e+00       1.881417133268e-10      -3.482722697332e-11      -1.840035188918e-16 
   41       1.476891822386e-10       2.948104049954e-15       2.461451473210e-13       0.000000000000e+00       1.786482795675e-10      -3.303152373564e-11       5.829155220288e-16 
   42       1.489621783982e-10       3.211830363986e-15       2.493050273063e-13       0.000000000000e+00       1.697904049238e-10      -3.135519904891e-11       2.631485862913e-16 
   43       1.502687767957e-10       3.490502956771e-15       2.523820714713e-13       0.000000000000e+00       1.615418789473e-10      -2.979312692252e-11      -9.416755107699e-16 
   44       1.516066372528e-10       3.786037807328e-15       2.551843899155e-13       0.000000000000e+00       1.538390150912e-10      -2.833310890305e-11      -2.769752342712e-15 
   45       1.529713066369e-10       4.100075773890e-15       2.575082794548e-13       0.000000000000e+00       1.466027687112e-10      -2.696006865816e-11      -4.936869217577e-15 
   46       1.543653682666e-10       4.432155204762e-15       2.592256695849e-13       0.000000000000e+00       1.398199719545e-10      -2.567144897119e-11      -7.272222928113e-15 
   47       1.557913045029e-10       4.781018465343e-15       2.602189095813e-13       0.000000000000e+00       1.334813350718e-10      -2.446546655352e-11      -9.616672391186e-15 
   48       1.572486274950e-10       5.145097184946e-15       2.603555616811e-13       0.000000000000e+00       1.275569838010e-10      -2.333647979047e-11      -1.178324806585e-14 
   49       1.587336182421e-10       5.522495610143e-15       2.594876424246e-13       0.000000000000e+00       1.219949354620e-10      -2.227470327988e-11      -1.355570718060e-14 
   50       1.602412945784e-10       5.911583069650e-15       2.574829646363e-13       0.000000000000e+00       1.167364740803e-10      -2.126915321417e-11      -1.473664928178e-14 
   51       1.617725502561e-10       6.312999578004e-15       2.543309528876e-13       0.000000000000e+00       1.117707312579e-10      -2.031808831942e-11      -1.531061172709e-14 
   52       1.633285026386e-10       6.728165855570e-15       2.500642390585e-13       0.000000000000e+00       1.070922864988e-10      -1.942090955360e-11      -1.532274724189e-14 
   53       1.649082808010e-10       7.158733530138e-15       2.447298061785e-13       0.000000000000e+00       1.026848516835e-10      -1.857504670678e-11      -1.483399928886e-14 
   54       1.665088694825e-10       7.606597154343e-15       2.383897403875e-13       0.000000000000e+00       9.852054241145e-11      -1.777582497934e-11      -1.392198954566e-14 
   55       1.681266711814e-10       8.073608910863e-15       2.311118446386e-13       0.000000000000e+00       9.456823259763e-11      -1.701792011156e-11      -1.267678682931e-14 
   56       1.697630043568e-10       8.560612202349e-15       2.229370265772e-13       0.000000000000e+00       9.082271797584e-11      -1.630045273982e-11      -1.118494988015e-14 
   57       1.714196977694e-10       9.068189033937e-15       2.139051262283e-13       0.000000000000e+00       8.728152113576e-11      -1.562292588917e-11      -9.543074949700e-15 
   58       1.730974048412e-10       9.596936715771e-15       2.040646936390e-13       0.000000000000e+00       8.393607641150e-11      -1.498367732827e-11      -7.863240120169e-15 
   59       1.747955145494e-10       1.014746829683e-14       1.934733458411e-13       0.000000000000e+00       8.077135511764e-11      -1.437980803932e-11      -6.273693358015e-15 
   60       1.765120623196e-10       1.072041299873e-14       1.821981238146e-13       0.000000000000e+00       7.776549078526e-11      -1.380711068787e-11      -4.919540567424e-15 
   61       1.782447837847e-10       1.131628643177e-14       1.702957993404e-13       0.000000000000e+00       7.489578147739e-11      -1.326120072323e-11      -3.929912043576e-15 
   62       1.799947540439e-10       1.193506621975e-14       1.577478225856e-13       0.000000000000e+00       7.215911893973e-11      -1.274136818404e-11      -3.309293174527e-15 
   63       1.817634108707e-10       1.257652145587e-14       1.445113397909e-13       0.000000000000e+00       6.955550083552e-11      -1.224746747494e-11      -3.022911704641e-15 
   64       1.835514321321e-10       1.324033089044e-14       1.305376812166e-13       0.000000000000e+00       6.708188929425e-11      -1.177875831762e-11      -3.027738816340e-15 
   65       1.853586829437e-10       1.392607923292e-14       1.157720819315e-13       0.000000000000e+00       6.473203848762e-11      -1.133387237918e-11      -3.272113568577e-15 
   66       1.871841628260e-10       1.463325345410e-14       1.001534026007e-13       0.000000000000e+00       6.249632220551e-11      -1.091077990057e-11      -3.695367335318e-15 
   67       1.890259528593e-10       1.536123908817e-14       8.361385027404e-14       0.000000000000e+00       6.036156143189e-11      -1.050675632502e-11      -4.227448244015e-15 
   68       1.908820662224e-10       1.610947319999e-14       6.608942790247e-14       0.000000000000e+00       5.831451555192e-11      -1.011909353139e-11      -4.799431371113e-15 
   69       1.927533180544e-10       1.687794754503e-14       4.755436571627e-14       0.000000000000e+00       5.635356285202e-11      -9.747475478733e-12      -5.378361806214e-15 
   70       1.946409448422e-10       1.766680118830e-14       2.799319701777e-14       0.000000000000e+00       5.447908792104e-11      -9.392026191412e-12      -5.938829473656e-15 
   71       1.965457232832e-10       1.847617316329e-14       7.390642015912e-15       0.000000000000e+00       5.268995011693e-11      -9.052593674295e-12      -6.452612640303e-15 
   72       1.984679405455e-10       1.930620278092e-14      -1.426839699341e-14       0.000000000000e+00       5.098340484171e-11      -8.728735584766e-12      -6.888580762140e-15 
   73       2.004073645276e-10       2.015702993843e-14      -3.699884044701e-14       0.000000000000e+00       4.935502481636e-11      -8.419704904750e-12      -7.212597330850e-15 
   74       2.023632141187e-10       2.102879542825e-14      -6.081543633405e-14       0.000000000000e+00       4.779862135588e-11      -8.124435612737e-12      -7.387422720403e-15 
   75       2.043341294589e-10       2.192164124688e-14      -8.573276501571e-14       0.000000000000e+00       4.630616564417e-11      -7.841528355803e-12      -7.372617033640e-15 
   76       2.063187796350e-10       2.283566821099e-14      -1.117587686088e-13       0.000000000000e+00       4.486977202319e-11      -7.569598049279e-12      -7.137932477363e-15 
   77       2.083178794463e-10       2.377079919969e-14      -1.388739662477e-13       0.000000000000e+00       4.348823941863e-11      -7.308421526989e-12      -6.706524695175e-15 
   78       2.103324880828e-10       2.472689141915e-14      -1.670484397721e-13       0.000000000000e+00       4.216156528933e-11      -7.057974111842e-12      -6.119481331010e-15 
   79       2.123633879166e-10       2.570377632565e-14      -1.962478470256e-13       0.000000000000e+00       4.088895358416e-11      -6.818079459572e-12      -5.423208105417e-15 
   80       2.144110678326e-10       2.670125905904e-14      -2.264332938915e-13       0.000000000000e+00       3.966877830036e-11      -6.588402652385e-12      -4.669608275853e-15 
   81       2.164757065599e-10       2.771911787620e-14      -2.575612063278e-13       0.000000000000e+00       3.849854704168e-11      -6.368443292597e-12      -3.916262096979e-15 
   82       2.185571560029e-10       2.875710358444e-14      -2.895832024033e-13       0.000000000000e+00       3.737486457668e-11      -6.157528596280e-12      -3.226606280951e-15 
   83       2.206549245725e-10       2.981493897497e-14      -3.224459643332e-13       0.000000000000e+00       3.629339639691e-11      -5.954806486902e-12      -2.670113457712e-15 
   84       2.227685149033e-10       3.089234329220e-14      -3.561035335914e-13       0.000000000000e+00       3.524991971430e-11      -5.759454018936e-12      -2.306040569922e-15 
   85       2.248985378433e-10       3.198911154354e-14      -3.905568184781e-13       0.000000000000e+00       3.424375646811e-11      -5.571357476605e-12      -2.131185410415e-15 
   86       2.270457534371e-10       3.310504735988e-14      -4.258204319056e-13       0.000000000000e+00       3.327484526974e-11      -5.390532882853e-12      -2.123757988239e-15 
   87       2.292107224054e-10       3.423993898505e-14      -4.619109302838e-13       0.000000000000e+00       3.234268666713e-11      -5.216917454870e-12      -2.258946277891e-15 
   88       2.313937954320e-10       3.539355913003e-14      -4.988468943469e-13       0.000000000000e+00       3.144632497929e-11      -5.050366316726e-12      -2.508819527253e-15 
   89       2.335951024512e-10       3.656566482722e-14      -5.366490099802e-13       0.000000000000e+00       3.058433013079e-11      -4.890649212006e-12      -2.842231565521e-15 
   90       2.358145419349e-10       3.775599728457e-14      -5.753401490470e-13       0.000000000000e+00       2.975477948627e-11      -4.737447216444e-12      -3.224724111144e-15 
   91       2.380517701801e-10       3.896428173986e-14      -6.149454502151e-13       0.000000000000e+00       2.895523968503e-11      -4.590349450556e-12      -3.618430079757e-15 
   92       2.403061905959e-10       4.019022731487e-14      -6.554923997841e-13       0.000000000000e+00       2.818274847548e-11      -4.448849792271e-12      -3.981976892111e-15 
   93       2.425772602703e-10       4.143352435686e-14      -6.970036483758e-13       0.000000000000e+00       2.743451777725e-11      -4.312463005443e-12      -4.279157512618e-15 
   94       2.448654856811e-10       4.269383632213e-14      -7.394740496091e-13       0.000000000000e+00       2.671020328071e-11      -4.181100244771e-12      -4.506645375862e-15 
   95       2.471715576299e-10       4.397080639647e-14      -7.828903014123e-13       0.000000000000e+00       2.600994419751e-11      -4.054744211617e-12      -4.670288408513e-15 
   96       2.494960410341e-10       4.526405972139e-14      -8.272378838218e-13       0.000000000000e+00       2.533366429328e-11      -3.933333144175e-12      -4.776736048887e-15 
   97       2.518393685692e-10       4.657320321373e-14      -8.725010400954e-13       0.000000000000e+00       2.468106362227e-11      -3.816759169307e-12      -4.833462908083e-15 
   98       2.542018343112e-10       4.789782538548e-14      -9.186627578256e-13       0.000000000000e+00       2.405161026208e-11      -3.704866654379e-12      -4.848792431111e-15 
   99       2.565835873797e-10       4.923749616343e-14      -9.657047500526e-13       0.000000000000e+00       2.344453204832e-11      -3.597450559097e-12      -4.831920558032e-15 
  100       2.589846255797e-10       5.059176670894e-14      -1.013607436378e-12       0.000000000000e+00       2.285880830934e-11      -3.494254787341e-12      -4.792939385086e-15 
  101       2.614047890443e-10       5.196016923761e-14      -1.062349924076e-12       0.000000000000e+00       2.229316160088e-11      -3.394970539002e-12      -4.742860825833e-15 
  102       2.638437538775e-10       5.334221683905e-14      -1.111909989211e-12       0.000000000000e+00       2.174604944080e-11      -3.299234661819e-12      -4.693640272279e-15 
  103       2.663010257964e-10       5.473740329658e-14      -1.162264057747e-12       0.000000000000e+00       2.121565604374e-11      -3.206628003211e-12      -4.658200256016e-15 
  104       2.687761419664e-10       5.614519114260e-14      -1.213388474761e-12       0.000000000000e+00       2.070030516819e-11      -3.116766660203e-12      -4.647688283855e-15 
  105       2.712693212509e-10       5.756497437534e-14      -1.265263548040e-12       0.000000000000e+00       2.019977997466e-11      -3.029593317525e-12      -4.662777510865e-15 
  106       2.737808903580e-10       5.899611034619e-14      -1.317870018047e-12       0.000000000000e+00       1.971416688221e-11      -2.945122375608e-12      -4.701229555503e-15 
  107       2.763110794703e-10       6.043793076842e-14      -1.371187813925e-12       0.000000000000e+00       1.924344678364e-11      -2.863349947147e-12      -4.760548734338e-15 
