# Matter power spectrum P(k) at redshift z=1
# for k=0.000782008 to 826.306 h/Mpc,
# number of wavenumbers equal to 521
#    1:k (h/Mpc)              2:P (Mpc/h)^3        
       7.820083848374e-04       1.682878489154e-05 
       6.176822371528e-03       1.228492102127e-04 
       1.871764651806e-02       3.565994628205e-04 
       3.155027742853e-02       5.883734279606e-04 
       4.440693395037e-02       8.156678259387e-04 
       5.727028818301e-02       1.038940657068e-03 
       7.013654944960e-02       1.258444828932e-03 
       8.300442891518e-02       1.474325086259e-03 
       9.587337329377e-02       1.686681542138e-03 
       1.087431082837e-01       1.895593595185e-03 
       1.216134842655e-01       2.101127041778e-03 
       1.344844141732e-01       2.303336207210e-03 
       1.473558451604e-01       2.502239774275e-03 
       1.602277444086e-01       2.697898166983e-03 
       1.731000914808e-01       2.890346533357e-03 
       1.859728739519e-01       3.079617102921e-03 
       1.988460847869e-01       3.265742030270e-03 
       2.117197207044e-01       3.448753586653e-03 
       2.245937811191e-01       3.628684275678e-03 
       2.374682674373e-01       3.805566817256e-03 
       2.503431825766e-01       3.979433997363e-03 
       2.632185306308e-01       4.150319498790e-03 
       2.760943166317e-01       4.318257317963e-03 
       2.889705463762e-01       4.483282687465e-03 
       3.018472263006e-01       4.645430800705e-03 
       3.147243633863e-01       4.804737759110e-03 
       3.276019650894e-01       4.961239664874e-03 
       3.404800392882e-01       5.114972252117e-03 
       3.533585942418e-01       5.265972223978e-03 
       3.662376385597e-01       5.414274821769e-03 
       3.791171811782e-01       5.559916026488e-03 
       3.919972313420e-01       5.702931286531e-03 
       4.048777985909e-01       5.843355354960e-03 
       4.177588927494e-01       5.981222252393e-03 
       4.306405239188e-01       6.116567089813e-03 
       4.435227024726e-01       6.249421693513e-03 
       4.564054390518e-01       6.379821016907e-03 
       4.692887445638e-01       6.507797858644e-03 
       4.821726301805e-01       6.633384613118e-03 
       4.950571073389e-01       6.756612789946e-03 
       5.079421877415e-01       6.877515124101e-03 
       5.208278833580e-01       6.996125643102e-03 
       5.337142064273e-01       7.112471219941e-03 
       5.466011694602e-01       7.226585038036e-03 
       5.594887852423e-01       7.338499964285e-03 
       5.723770668380e-01       7.448242465826e-03 
       5.852660275935e-01       7.555844073850e-03 
       5.981556811417e-01       7.661344248608e-03 
       6.110460414062e-01       7.764948068867e-03 
       6.239371226064e-01       7.866311084327e-03 
       6.368289392619e-01       7.965672638629e-03 
       6.497215061985e-01       8.063026253942e-03 
       6.626148385529e-01       8.158398764836e-03 
       6.755089517789e-01       8.251831246322e-03 
       6.884038616527e-01       8.343346450258e-03 
       7.012995842796e-01       8.432929433594e-03 
       7.141961360997e-01       8.520616455052e-03 
       7.270935338946e-01       8.606533148209e-03 
       7.399917947941e-01       8.690610596705e-03 
       7.528909362828e-01       8.772888825150e-03 
       7.657909762070e-01       8.853317533546e-03 
       7.786919327825e-01       8.932077193414e-03 
       7.915938246010e-01       9.008881861372e-03 
       8.044966706386e-01       9.084188336620e-03 
       8.174004902629e-01       9.157803729321e-03 
       8.303053032410e-01       9.229765912172e-03 
       8.432111297479e-01       9.300063933836e-03 
       8.561179903746e-01       9.368771063269e-03 
       8.690259061366e-01       9.435878528736e-03 
       8.819348984825e-01       9.501411124852e-03 
       8.948449893030e-01       9.565388406453e-03 
       9.077562009401e-01       9.627849462020e-03 
       9.206685561960e-01       9.688782718794e-03 
       9.335820783433e-01       9.748377154581e-03 
       9.464967911337e-01       9.806159605501e-03 
       9.594127188090e-01       9.862626987342e-03 
       9.723298861106e-01       9.917695723611e-03 
       9.852483182900e-01       9.971311174053e-03 
       9.981680411194e-01       1.002352820983e-02 
       1.011089080903e+00       1.007438792247e-02 
       1.024011464487e+00       1.012385210975e-02 
       1.036935219272e+00       1.017196467936e-02 
       1.049860373225e+00       1.021893209682e-02 
       1.062786954889e+00       1.026417637955e-02 
       1.075714993397e+00       1.030855310642e-02 
       1.088644518485e+00       1.035121840430e-02 
       1.101575560502e+00       1.039302994139e-02 
       1.114508150426e+00       1.043339406180e-02 
       1.127442319874e+00       1.047250053477e-02 
       1.140378101119e+00       1.051018292781e-02 
       1.153315527101e+00       1.054690950087e-02 
       1.166254631441e+00       1.058257686665e-02 
       1.179195448460e+00       1.061669914731e-02 
       1.192138013186e+00       1.065001839023e-02 
       1.205082361376e+00       1.068184731324e-02 
       1.218028529529e+00       1.071271929325e-02 
       1.230976554900e+00       1.074247741140e-02 
       1.243926475519e+00       1.077112329591e-02 
       1.256878330203e+00       1.079867881578e-02 
       1.269832158581e+00       1.082519115706e-02 
       1.282788001102e+00       1.085058294636e-02 
       1.295745899058e+00       1.087494683167e-02 
       1.308705894601e+00       1.089827987597e-02 
       1.321668030761e+00       1.092061150372e-02 
       1.334632351465e+00       1.094192113551e-02 
       1.347598901555e+00       1.096217641175e-02 
       1.360567726811e+00       1.098169253670e-02 
       1.373538873967e+00       1.099983675525e-02 
       1.386512390734e+00       1.101723995351e-02 
       1.399488325822e+00       1.103364543745e-02 
       1.412466728959e+00       1.104914899623e-02 
       1.425447650914e+00       1.106370830637e-02 
       1.438431143520e+00       1.107737619281e-02 
       1.451417259697e+00       1.109013996138e-02 
       1.464406053476e+00       1.110203340931e-02 
       1.477397580021e+00       1.111302890411e-02 
       1.490391895657e+00       1.112312233311e-02 
       1.503389057892e+00       1.113242642094e-02 
       1.516389125445e+00       1.114084678960e-02 
       1.529392158272e+00       1.114844123437e-02 
       1.542398217594e+00       1.115541129262e-02 
       1.555407365921e+00       1.116125920019e-02 
       1.568419667085e+00       1.116644565762e-02 
       1.581435186267e+00       1.117100745396e-02 
       1.594453990027e+00       1.117445368570e-02 
       1.607476146334e+00       1.117731803148e-02 
       1.620501724596e+00       1.117957040951e-02 
       1.633530795696e+00       1.118075356241e-02 
       1.646563432020e+00       1.118138258306e-02 
       1.659599707494e+00       1.118127412574e-02 
       1.672639697616e+00       1.118064641609e-02 
       1.685683479493e+00       1.117912784478e-02 
       1.698731131874e+00       1.117676088299e-02 
       1.711782735190e+00       1.117401828058e-02 
       1.724838371590e+00       1.117031517413e-02 
       1.737898124980e+00       1.116625083083e-02 
       1.750962081064e+00       1.116129707790e-02 
       1.764030327382e+00       1.115570956883e-02 
       1.777102953353e+00       1.114957726309e-02 
       1.790180050317e+00       1.114269125425e-02 
       1.803261711581e+00       1.113543997302e-02 
       1.816348032459e+00       1.112738286594e-02 
       1.829439110324e+00       1.111886706061e-02 
       1.842535044649e+00       1.110957961722e-02 
       1.855635937060e+00       1.109980069566e-02 
       1.868741891384e+00       1.108937224186e-02 
       1.881853013696e+00       1.107846847687e-02 
       1.894969412378e+00       1.106701687241e-02 
       1.908091198167e+00       1.105502504228e-02 
       1.921218484211e+00       1.104252382361e-02 
       1.934351386125e+00       1.102950913339e-02 
       1.947490022052e+00       1.101593863198e-02 
       1.960634512716e+00       1.100185804250e-02 
       1.973784981486e+00       1.098721396633e-02 
       1.986941554440e+00       1.097222556527e-02 
       2.000104360425e+00       1.095666117959e-02 
       2.013273531126e+00       1.094059361553e-02 
       2.026449201130e+00       1.092414083335e-02 
       2.039631507998e+00       1.090719930654e-02 
       2.052820592335e+00       1.088980015843e-02 
       2.066016597861e+00       1.087193796263e-02 
       2.079219671491e+00       1.085363888019e-02 
       2.092429963405e+00       1.083491646644e-02 
       2.105647627131e+00       1.081576843164e-02 
       2.118872819628e+00       1.079613671779e-02 
       2.132105701363e+00       1.077618681376e-02 
       2.145346436406e+00       1.075597254822e-02 
       2.158595192507e+00       1.073515175977e-02 
       2.171852141196e+00       1.071405664456e-02 
       2.185117457873e+00       1.069259196038e-02 
       2.198391321900e+00       1.067062262647e-02 
       2.211673916706e+00       1.064840558890e-02 
       2.224965429883e+00       1.062581720799e-02 
       2.238266053293e+00       1.060289585730e-02 
       2.251575983174e+00       1.057978079305e-02 
       2.264895420252e+00       1.055614755675e-02 
       2.278224569852e+00       1.053219292783e-02 
       2.291563642016e+00       1.050799282300e-02 
       2.304912851625e+00       1.048336122006e-02 
       2.318272418520e+00       1.045861433042e-02 
       2.331642567632e+00       1.043348088166e-02 
       2.345023529111e+00       1.040796065773e-02 
       2.358415538464e+00       1.038221531697e-02 
       2.371818836693e+00       1.035623706231e-02 
       2.385233670439e+00       1.033001788744e-02 
       2.398660292131e+00       1.030340566199e-02 
       2.412098960136e+00       1.027669594059e-02 
       2.425549938921e+00       1.024966122157e-02 
       2.439013499211e+00       1.022231283807e-02 
       2.452489918159e+00       1.019474532670e-02 
       2.465979479518e+00       1.016695650563e-02 
       2.479482473821e+00       1.013897038854e-02 
       2.492999198560e+00       1.011070691372e-02 
       2.506529958385e+00       1.008228611713e-02 
       2.520075065290e+00       1.005362702496e-02 
       2.533634838823e+00       1.002473040136e-02 
       2.547209606292e+00       9.995617036847e-03 
       2.560799702980e+00       9.966425636155e-03 
       2.574405472373e+00       9.936907206189e-03 
       2.588027266386e+00       9.907261951766e-03 
       2.601665445603e+00       9.877412762771e-03 
       2.615320379526e+00       9.847414574016e-03 
       2.628992446828e+00       9.817290870894e-03 
       2.642682035617e+00       9.786999904880e-03 
       2.656389543709e+00       9.756467600119e-03 
       2.670115378912e+00       9.725811367062e-03 
       2.683859959318e+00       9.695053742894e-03 
       2.697623713606e+00       9.664041403426e-03 
       2.711407081356e+00       9.632979923846e-03 
       2.725210513372e+00       9.601803353231e-03 
       2.739034472025e+00       9.570397145029e-03 
       2.752879431593e+00       9.538904042316e-03 
       2.766745878632e+00       9.507326933335e-03 
       2.780634312346e+00       9.475621221946e-03 
       2.794545244977e+00       9.443787329336e-03 
       2.808479202212e+00       9.411873767777e-03 
       2.822436723601e+00       9.379818775177e-03 
       2.836418362989e+00       9.347669070607e-03 
       2.850424688975e+00       9.315459094027e-03 
       2.864456285375e+00       9.283196718637e-03 
       2.878513751715e+00       9.250704365808e-03 
       2.892597703737e+00       9.218196079463e-03 
       2.906708773924e+00       9.185603097209e-03 
       2.920847612054e+00       9.152942406052e-03 
       2.935014885766e+00       9.120185101890e-03 
       2.949211281154e+00       9.087450141829e-03 
       2.963437503391e+00       9.054571348168e-03 
       2.977694277368e+00       9.021648683550e-03 
       2.991982348365e+00       8.988654681839e-03 
       3.006302482755e+00       8.955601440508e-03 
       3.020655468728e+00       8.922467714848e-03 
       3.035042117052e+00       8.889314530880e-03 
       3.049463261869e+00       8.856123311516e-03 
       3.063919761521e+00       8.822871084815e-03 
       3.078412499413e+00       8.789593245586e-03 
       3.092942384916e+00       8.756249290052e-03 
       3.107510354312e+00       8.722876453003e-03 
       3.122117371778e+00       8.689522606504e-03 
       3.136764430413e+00       8.656103088546e-03 
       3.151452553324e+00       8.622603134650e-03 
       3.166182794746e+00       8.589114104673e-03 
       3.180956241227e+00       8.555660651318e-03 
       3.195774012865e+00       8.522131814754e-03 
       3.210637264601e+00       8.488590290013e-03 
       3.225547187580e+00       8.455045500523e-03 
       3.240505010578e+00       8.421434754632e-03 
       3.255512001489e+00       8.387905583708e-03 
       3.270569468902e+00       8.354339772361e-03 
       3.285678763747e+00       8.320743656583e-03 
       3.300841281023e+00       8.287166525464e-03 
       3.316058461622e+00       8.253558698226e-03 
       3.331331794243e+00       8.219989027364e-03 
       3.346662817402e+00       8.186382247697e-03 
       3.362053121560e+00       8.152793665075e-03 
       3.377504351352e+00       8.119191661179e-03 
       3.393018207942e+00       8.085614308869e-03 
       3.408596451511e+00       8.052025231485e-03 
       3.424240903869e+00       8.018517136261e-03 
       3.439953451229e+00       7.984949985231e-03 
       3.455736047124e+00       7.951404050655e-03 
       3.471590715498e+00       7.917871367127e-03 
       3.487519553971e+00       7.884331728883e-03 
       3.503524737298e+00       7.850842905180e-03 
       3.519608521028e+00       7.817327276295e-03 
       3.535773245384e+00       7.783870078098e-03 
       3.552021339378e+00       7.750422545855e-03 
       3.568355325174e+00       7.716974016018e-03 
       3.584777822724e+00       7.683538312851e-03 
       3.601291554689e+00       7.650123204831e-03 
       3.617899351683e+00       7.616749185051e-03 
       3.634604157838e+00       7.583357614329e-03 
       3.651409036743e+00       7.550035505394e-03 
       3.668317177766e+00       7.516664814492e-03 
       3.685331902803e+00       7.483378429373e-03 
       3.702456673475e+00       7.450066532799e-03 
       3.719695098828e+00       7.416798155637e-03 
       3.737050943554e+00       7.383538479625e-03 
       3.754528136797e+00       7.350309629625e-03 
       3.772130781590e+00       7.317090031212e-03 
       3.789863164960e+00       7.283909064704e-03 
       3.807729768784e+00       7.250722571924e-03 
       3.825735281448e+00       7.217513188776e-03 
       3.843884610382e+00       7.184393882651e-03 
       3.862182895556e+00       7.151257344354e-03 
       3.880635524016e+00       7.118105326667e-03 
       3.899248145574e+00       7.085007842886e-03 
       3.918026689747e+00       7.051876171560e-03 
       3.936977384061e+00       7.018785840274e-03 
       3.956106773885e+00       6.985680269041e-03 
       3.975421743902e+00       6.952612547145e-03 
       3.994929541422e+00       6.919518881554e-03 
       4.014637801705e+00       6.886415179566e-03 
       4.034554575509e+00       6.853354272468e-03 
       4.054688359104e+00       6.820245665255e-03 
       4.075048127008e+00       6.787155591256e-03 
       4.095643367754e+00       6.754038890068e-03 
       4.116484123026e+00       6.720901441292e-03 
       4.137581030539e+00       6.687779409723e-03 
       4.158945371104e+00       6.654601456121e-03 
       4.180589120367e+00       6.621442414014e-03 
       4.202525005789e+00       6.588234650706e-03 
       4.224766569501e+00       6.554964490773e-03 
       4.247328237770e+00       6.521696096652e-03 
       4.270225397914e+00       6.488371876311e-03 
       4.293474483636e+00       6.454995085001e-03 
       4.317093069884e+00       6.421577311310e-03 
       4.341099978519e+00       6.388092302580e-03 
       4.365515396296e+00       6.354521617922e-03 
       4.390361006866e+00       6.320911629551e-03 
       4.415660138824e+00       6.287190946506e-03 
       4.441437932165e+00       6.253401933867e-03 
       4.467721525887e+00       6.219506619462e-03 
       4.494540270010e+00       6.185520889380e-03 
       4.521925965824e+00       6.151372838953e-03 
       4.549913138903e+00       6.117129106044e-03 
       4.578539350275e+00       6.082751844396e-03 
       4.607845552168e+00       6.048202387827e-03 
       4.637876496019e+00       6.013492445018e-03 
       4.668681201991e+00       5.978576680628e-03 
       4.700313501127e+00       5.943516112852e-03 
       4.732832663662e+00       5.908200464274e-03 
       4.766304129900e+00       5.872668571875e-03 
       4.800800363723e+00       5.836826716432e-03 
       4.836401853344e+00       5.800752513523e-03 
       4.873198289646e+00       5.764353643791e-03 
       4.911289959622e+00       5.727566474601e-03 
       4.950789401605e+00       5.690468840019e-03 
       4.991823380500e+00       5.652952562288e-03 
       5.034535255993e+00       5.614924491729e-03 
       5.079087835474e+00       5.576425430317e-03 
       5.125666827347e+00       5.537335760977e-03 
       5.174485040846e+00       5.497669483296e-03 
       5.225787517028e+00       5.457154357686e-03 
       5.279857823947e+00       5.415883702291e-03 
       5.337025808469e+00       5.373791167902e-03 
       5.397677168207e+00       5.330567792745e-03 
       5.462265286737e+00       5.286146526633e-03 
       5.531325854531e+00       5.240312504191e-03 
       5.605494853058e+00       5.192835318927e-03 
       5.685530458295e+00       5.143362500788e-03 
       5.772339214273e+00       5.091476648242e-03 
       5.867006226008e+00       5.036761307822e-03 
       5.970827732187e+00       4.978287068531e-03 
       6.085341567982e+00       4.915391105843e-03 
       6.212345703750e+00       4.846679263964e-03 
       6.353886127536e+00       4.770649113193e-03 
       6.512182806499e+00       4.685117445574e-03 
       6.689450761170e+00       4.587632318898e-03 
       6.887577293982e+00       4.474864030820e-03 
       7.107663950452e+00       4.344179575025e-03 
       7.349552095740e+00       4.193292509739e-03 
       7.611573048151e+00       4.021934445840e-03 
       7.890746574670e+00       3.832369044930e-03 
       8.183403374897e+00       3.629856477255e-03 
       8.485921109752e+00       3.421663274915e-03 
       8.795240462370e+00       3.215784403536e-03 
       9.109050929511e+00       3.019894099417e-03 
       9.425737979870e+00       2.839930121238e-03 
       9.744230597455e+00       2.679987913875e-03 
       1.006384188239e+01       2.542017476123e-03 
       1.038414060617e+01       2.426017059696e-03 
       1.070485963254e+01       2.330365917519e-03 
       1.102583483223e+01       2.252262383757e-03 
       1.134696587094e+01       2.188020539336e-03 
       1.166819160154e+01       2.133612606757e-03 
       1.198947482868e+01       2.084887027087e-03 
       1.231079295247e+01       2.038098857253e-03 
       1.263213225074e+01       1.990048091194e-03 
       1.295348439515e+01       1.938448809765e-03 
       1.327484433234e+01       1.881954040722e-03 
       1.359620899655e+01       1.820411009789e-03 
       1.391757652802e+01       1.754504237025e-03 
       1.423894579866e+01       1.685648685155e-03 
       1.456031612421e+01       1.615710282504e-03 
       1.488168708962e+01       1.546711926375e-03 
       1.520305844316e+01       1.480607920963e-03 
       1.552443003212e+01       1.419010263016e-03 
       1.584580176391e+01       1.363133642244e-03 
       1.616717358234e+01       1.313657749934e-03 
       1.648854545333e+01       1.270722529917e-03 
       1.680991735623e+01       1.234055573235e-03 
